#      distance             U_x             U_y             U_z wallShearStr... wallShearStr... wallShearStr...               p           omega               k             nut
  3.0219182e-06      0.01843782   2.6287188e-09   -3.446278e-23               0               0               0   0.00023277783       5570601.8   3.9968049e-07   3.7390789e-13
  5.0865428e-06     0.031037916   6.6685056e-09  -1.4612156e-23               0               0               0   0.00023277804       1240850.2   1.8252516e-06   3.4558841e-12
  7.2269684e-06     0.044099916   1.3131831e-08  -3.7644828e-23               0               0               0   0.00023277826       495682.17    5.756884e-06   1.9325536e-11
  9.4750924e-06     0.057816453   2.2381185e-08  -5.6461202e-23               0               0               0   0.00023277848       256764.62   1.4417736e-05   7.8819222e-11
  1.1864417e-05      0.07238553   3.4928081e-08  -2.3401857e-23               0               0               0   0.00023277871       152802.43     3.10862e-05   2.5990223e-10
  1.4430548e-05     0.088006561   5.1506956e-08   7.8886218e-23               0               0               0   0.00023277897       99058.211   6.0518325e-05   7.3658413e-10
  1.7211727e-05      0.10486833   7.3075968e-08   1.2748617e-22               0               0               0   0.00023277925       68139.922   0.00010940313   1.8611051e-09
  2.0249401e-05      0.12312272   1.0083009e-07   2.8788279e-23               0               0               0   0.00023277957       49052.766   0.00018656159   4.2813962e-09
  2.3588836e-05      0.14283911   1.3619325e-07  -3.0452372e-23               0               0               0   0.00023277996        36671.29   0.00030228692   9.0655706e-09
  2.7279799e-05      0.16394512   1.8075501e-07  -1.5226186e-23               0               0               0   0.00023278044       28321.816   0.00046603607   1.7755244e-08
  3.1377293e-05      0.18618159   2.3614935e-07               0               0               0               0   0.00023278107       22484.238   0.00068235326   3.2248161e-08
  3.5942381e-05      0.20911508   3.0393823e-07    7.195264e-23               0               0               0   0.00023278189       18244.004   0.00094682622     5.44972e-08
  4.1043091e-05      0.23222634   3.8559324e-07   1.0791742e-22               0               0               0   0.00023278298       15039.629    0.0012453291   8.6182942e-08
  4.6755437e-05      0.25503477   4.8256094e-07   1.2150239e-22               0               0               0    0.0002327844       12530.016    0.0015580278   1.2857465e-07
  5.3164546e-05      0.27720388   5.9651832e-07    1.282927e-22               0               0               0    0.0002327862       10510.271    0.0018656928   1.8205249e-07
  6.0365928e-05      0.29857383   7.2969135e-07  -1.9331501e-22               0               0               0   0.00023278844       8853.5629     0.002154506   2.4683818e-07
    6.84669e-05      0.31908874   8.8479859e-07  -4.1174802e-22               0               0               0   0.00023279124       7476.9224    0.0024168725   3.2495232e-07
  7.7588184e-05      0.33871167   1.0648535e-06  -2.1504413e-22               0               0               0   0.00023279471       6324.5354    0.0026493276   4.1961776e-07
   8.786571e-05      0.35741803   1.2732261e-06   6.1359651e-23               0               0               0     0.000232799       5357.5269    0.0028511042   5.3377241e-07
  9.9452634e-05       0.3752176   1.5137901e-06   2.7237386e-22               0               0               0   0.00023280425       4546.6145    0.0030237003   6.6994749e-07
  0.00011252163      0.39216267   1.7910802e-06   5.6552941e-23               0               0               0   0.00023281057       3867.6552    0.0031701531   8.2955207e-07
  0.00012726745      0.40834742   2.1105946e-06   -1.531315e-22               0               0               0   0.00023281805       3299.2749    0.0032942029   1.0127886e-06
  0.00014390985      0.42388387   2.4789152e-06  -3.8036444e-23               0               0               0   0.00023282686       2822.4202    0.0033995599   1.2215842e-06
  0.00016269684      0.43886602   2.9034638e-06   6.8210941e-23               0               0               0    0.0002328372       2421.0039     0.003489332    1.460574e-06
  0.00018390838      0.45336171   3.3925395e-06   5.4411598e-22               0               0               0   0.00023284933       2081.9991    0.0035659084   1.7344662e-06
  0.00020786057       0.4674261   3.9557277e-06   6.7968669e-22               0               0               0   0.00023286355       1794.8321    0.0036312283   2.0475911e-06
  0.00023491035      0.48110854   4.6041088e-06   2.0378165e-22               0               0               0   0.00023288016       1550.8416    0.0036869457   2.4048178e-06
  0.00026546084        0.494453   5.3503828e-06               0               0               0               0   0.00023289951       1342.9234    0.0037344559   2.8116135e-06
   0.0002999673      0.50749858   6.2091206e-06               0               0               0               0     0.000232922       1165.2385    0.0037749261    3.274108e-06
  0.00033894396      0.52028004   7.1970524e-06  -1.8512627e-22               0               0               0   0.00023294809       1012.9766     0.003809327   3.7991631e-06
  0.00038297165      0.53282837   8.3333937e-06  -3.7025255e-22               0               0               0    0.0002329783       882.16305    0.0038384618   4.3944455e-06
  0.00043270649      0.54517127   9.6402192e-06   8.0098676e-22               0               0               0   0.00023301322       769.50373    0.0038629908   5.0685032e-06
  0.00048888965      0.55733356   1.1142898e-05   1.5554836e-21               0               0               0   0.00023305352       672.25931    0.0038834529   5.8308424e-06
  0.00055235838      0.56933765   1.2870601e-05    5.693706e-22               0               0               0   0.00023309996       588.14398    0.0039002827   6.6920028e-06
   0.0006240585      0.58120387   1.4856889e-05               0               0               0               0   0.00023315341       515.24379    0.0039138243   7.6636285e-06
  0.00070505852      0.59295081   1.7140405e-05   2.3905982e-22               0               0               0   0.00023321485       451.95063    0.0039243431   8.7585271e-06
  0.00079656552      0.60459566   1.9765684e-05   4.7811965e-22               0               0               0   0.00023328537       396.90878    0.0039320338   9.9907116e-06
  0.00089994316      0.61615443   2.2784113e-05   2.3905983e-22               0               0               0    0.0002333662       348.97159    0.0039370271   1.1375414e-05
    0.001016732      0.62764231   2.6255058e-05               0               0               0               0   0.00023345874       307.16619    0.0039393941   1.2929054e-05
   0.0011486725      0.63907384   3.0247225e-05   1.0417591e-21               0               0               0   0.00023356453       270.66466     0.003939149   1.4669152e-05
   0.0012977308      0.65046324   3.4840272e-05  -7.8791927e-22               0               0               0   0.00023368528       238.76051    0.0039362502   1.6614146e-05
   0.0014661282      0.66182467   4.0126769e-05  -3.4906266e-21               0               0               0   0.00023382291       210.84923    0.0039306002   1.8783096e-05
   0.0016563743      0.67317249   4.6214578e-05   -2.696749e-21               0               0               0    0.0002339795       186.41235    0.0039220428   2.1195216e-05
   0.0018713042      0.68452159   5.3229769e-05  -1.5854715e-21               0               0               0   0.00023415732       165.00424    0.0039103601   2.3869181e-05
   0.0021141207      0.69588774   6.1320227e-05  -5.4967075e-22               0               0               0   0.00023435883       146.24107    0.0038952665   2.6822137e-05
   0.0023884425      0.70728802   7.0660154e-05  -4.0098826e-22               0               0               0    0.0002345866       129.79177    0.0038764013     3.00683e-05
   0.0026983575      0.71874125   8.1455745e-05   1.2444392e-21               0               0               0   0.00023484333       115.37033    0.0038533174   3.3617044e-05
   0.0030484842      0.73026862   9.3952422e-05   -2.236881e-21               0               0               0    0.0002351317       102.72952    0.0038254687   3.7470299e-05
   0.0034440402      0.74189441   0.00010844415  -5.6992109e-21               0               0               0   0.00023545428       91.655557    0.0037921911   4.1619095e-05
   0.0038909203      0.75364686   0.00012528555  -1.8169025e-21               0               0               0   0.00023581329       81.963656    0.0037526796   4.6039032e-05
    0.004395784      0.76555933   0.00014490802   3.1397528e-21               0               0               0   0.00023621032       73.494436    0.0037059573   5.0684438e-05
   0.0049661549       0.7776718   0.00016784164  -4.6848641e-21               0               0               0   0.00023664591       66.110932     0.003650835   5.5481019e-05
   0.0056105328      0.79003275    0.0001947455  -1.3758148e-20               0               0               0   0.00023711886       59.696312    0.0035858586   6.0316812e-05
   0.0063385204      0.80270177   0.00022644592   5.3448332e-21               0               0               0   0.00023762422       54.152265    0.0035092412   6.5031468e-05
   0.0071609664      0.81575296   0.00026396575   1.8559068e-20               0               0               0   0.00023814915        49.39824    0.0034187773   6.9404158e-05
   0.0080901272      0.82929175   0.00030867328   2.9368574e-20               0               0               0   0.00023867784       45.366489    0.0033114405   7.3003634e-05
   0.0091398493      0.84349014    0.0003625777   3.4056016e-20               0               0               0   0.00023919556       41.988267    0.0031824446   7.5150885e-05
    0.010325776      0.85859694   0.00042859326   1.6024708e-20               0               0               0    0.0002396661       39.180475    0.0030241393   7.5299233e-05
     0.01166558       0.8749124   0.00051065506   4.0565641e-21               0               0               0   0.00024001907       36.833363    0.0028246687   7.3110738e-05
    0.013179228      0.89277058   0.00061407012   1.7910234e-20               0               0               0   0.00024016235       34.787106    0.0025666335   6.8306302e-05
    0.014889277        0.912475   0.00074578183   1.6571978e-20               0               0               0   0.00023994785       32.818674    0.0022283748   6.0910551e-05
    0.016821209      0.93403148   0.00091056549    5.071702e-20               0               0               0   0.00023905428       30.697568    0.0017936477   5.1466928e-05
    0.019003816      0.95679049    0.0011121437   7.7422704e-20               0               0               0   0.00023728506       28.146664    0.0012635255   4.0160037e-05
    0.021469624      0.97883265    0.0013395836   4.3867644e-20               0               0               0   0.00023447884       23.077515   0.00068846731   2.6268853e-05
    0.024255377       0.9952667    0.0015166495   2.4057606e-20               0               0               0   0.00022961152       14.332647   0.00023567009   1.2129562e-05
    0.027402591       1.0024696    0.0015843713   5.5573468e-21               0               0               0   0.00022279819       7.3127026    3.669208e-05   3.1151548e-06
    0.030958166       1.0037759    0.0015883548               0               0               0               0   0.00021583951       5.3270057   1.7762152e-06   3.2429012e-07
    0.034975088       1.0038178    0.0015795554               0               0               0               0   0.00020934805       5.2603571   6.5595409e-07   1.2469794e-07
    0.039513219       1.0038154    0.0015694253   1.9704021e-20               0               0               0   0.00020288693       5.2618478    6.539126e-07   1.2427305e-07
    0.044640187       1.0038176    0.0015602002   2.9552942e-20               0               0               0   0.00019622803        5.262259   6.5412431e-07   1.2430341e-07
    0.050432395       1.0038245    0.0015499128   9.8488854e-21               0               0               0    0.0001893688       5.2622369   6.5413618e-07   1.2430619e-07
    0.056976161       1.0038303    0.0015381009               0               0               0               0   0.00018240695       5.2622292   6.5413295e-07   1.2430576e-07
    0.064369002       1.0038308    0.0015255213               0               0               0               0   0.00017551726       5.2622235   6.5413175e-07   1.2430567e-07
    0.072721087       1.0038279    0.0015118118               0               0               0               0    0.0001688527       5.2622134   6.5413014e-07    1.243056e-07
    0.082156882       1.0038227    0.0014971261               0               0               0               0   0.00016250072       5.2621959    6.541276e-07   1.2430553e-07
    0.092817002        1.003815    0.0014812335               0               0               0               0   0.00015654229       5.2621687    6.541238e-07   1.2430545e-07
