#      distance             U_x             U_y             U_z wallShearStr... wallShearStr... wallShearStr...               p           omega               k             nut
              0      0.99938535               0               0               0               0               0    0.0046624728       44.122756   6.4908558e-06   1.4708809e-07
   0.0021021021      0.99936717               0               0               0               0               0    0.0046806627       43.932272   6.4512355e-06   1.4682283e-07
   0.0042042042      0.99934899               0               0               0               0               0    0.0046988525       43.741788   6.4116153e-06   1.4655757e-07
   0.0063063063      0.99933081               0               0               0               0               0    0.0047170424       43.551304   6.3719951e-06   1.4629231e-07
   0.0084084084      0.99931263               0               0               0               0               0    0.0047352322        43.36082   6.3323748e-06   1.4602705e-07
    0.010510511      0.99929202               0               0               0               0               0    0.0047558488        43.18452   6.2951057e-06   1.4576022e-07
    0.012612613       0.9992699               0               0               0               0               0    0.0047779725       43.017031    6.259297e-06   1.4549242e-07
    0.014714715      0.99924779               0               0               0               0               0    0.0048000962       42.849541   6.2234882e-06   1.4522463e-07
    0.016816817      0.99922567               0               0               0               0               0    0.0048222199       42.682052   6.1876794e-06   1.4495683e-07
    0.018918919      0.99920355               0               0               0               0               0    0.0048443436       42.514562   6.1518707e-06   1.4468903e-07
    0.021021021      0.99918082               0               0               0               0               0    0.0048670842       42.349341   6.1164442e-06   1.4442116e-07
    0.023123123      0.99915392               0               0               0               0               0    0.0048939723       42.199371   6.0835881e-06   1.4415276e-07
    0.025225225      0.99912702               0               0               0               0               0    0.0049208603       42.049401    6.050732e-06   1.4388436e-07
    0.027327327      0.99910013               0               0               0               0               0    0.0049477484       41.899431   6.0178759e-06   1.4361596e-07
    0.029429429      0.99907323               0               0               0               0               0    0.0049746364       41.749461   5.9850198e-06   1.4334756e-07
    0.031531532      0.99904484               0               0               0               0               0     0.005003012       41.602996   5.9527622e-06   1.4307929e-07
    0.033633634      0.99901208               0               0               0               0               0    0.0050357323       41.466767   5.9222527e-06   1.4281139e-07
    0.035735736      0.99897932               0               0               0               0               0    0.0050684526       41.330539   5.8917433e-06    1.425435e-07
    0.037837838      0.99894656               0               0               0               0               0    0.0051011728       41.194311   5.8612338e-06   1.4227561e-07
     0.03993994       0.9989138               0               0               0               0               0    0.0051338931       41.058082   5.8307243e-06   1.4200772e-07
    0.042042042      0.99887436               0               0               0               0               0     0.005173229       40.931934    5.801956e-06    1.417409e-07
    0.044144144       0.9988343               0               0               0               0               0    0.0052131848        40.80673   5.7733508e-06   1.4147418e-07
    0.046246246      0.99879424               0               0               0               0               0    0.0052531406       40.681526   5.7447456e-06   1.4120747e-07
    0.048348348      0.99875384               0               0               0               0               0    0.0052934316       40.556653   5.7161981e-06   1.4094081e-07
     0.05045045      0.99870455               0               0               0               0               0    0.0053425211       40.440468   5.6891665e-06   1.4067566e-07
    0.052552553      0.99865525               0               0               0               0               0    0.0053916107       40.324284   5.6621349e-06   1.4041051e-07
    0.054654655      0.99860596               0               0               0               0               0    0.0054407002       40.208099   5.6351033e-06   1.4014536e-07
    0.056756757      0.99854995               0               0               0               0               0    0.0054963751       40.096104   5.6088099e-06   1.3988122e-07
    0.058858859      0.99848862               0               0               0               0               0    0.0055572418       39.987413   5.5830984e-06   1.3961787e-07
    0.060960961       0.9984273               0               0               0               0               0    0.0056181084       39.878721   5.5573869e-06   1.3935452e-07
    0.063063063      0.99835925               0               0               0               0               0    0.0056856415       39.772749   5.5321562e-06   1.3909196e-07
    0.065165165      0.99828211               0               0               0               0               0    0.0057621874       39.670453   5.5075755e-06   1.3883046e-07
    0.067267267      0.99820498               0               0               0               0               0    0.0058387333       39.568158   5.4829949e-06   1.3856896e-07
    0.069369369      0.99811436               0               0               0               0               0    0.0059278693        39.46893   5.4589695e-06   1.3830866e-07
    0.071471471      0.99801412               0               0               0               0               0     0.006025982       39.371889   5.4353401e-06   1.3804921e-07
    0.073573574      0.99791389               0               0               0               0               0    0.0061240946       39.274848   5.4117107e-06   1.3778977e-07
    0.075675676      0.99778368               0               0               0               0               0    0.0062538849        39.18337   5.3890318e-06   1.3753193e-07
    0.077777778      0.99765313               0               0               0               0               0    0.0063840348       39.091954   5.3663637e-06   1.3727412e-07
     0.07987988      0.99748466               0               0               0               0               0    0.0065432702       39.001011   5.3438573e-06    1.370171e-07
    0.081981982      0.99729069               0               0               0               0               0    0.0067220602       38.910384   5.3214595e-06   1.3676061e-07
    0.084084084      0.99707301               0               0               0               0               0    0.0069364466       38.825945   5.3001456e-06   1.3650947e-07
    0.086186186      0.99681538               0               0               0               0               0    0.0072107947       38.751928   5.2806574e-06   1.3626733e-07
    0.088288288      0.99641969               0  -3.1842642e-22               0               0               0    0.0075250289       38.662379   5.2588547e-06   1.3601902e-07
     0.09039039      0.99566222               0  -1.4713064e-21               0               0               0     0.007943787        38.53213   5.2309866e-06   1.3575453e-07
    0.092492492      0.99493424               0   7.8548258e-18               0               0               0    0.0085559198       42.802544   5.2903809e-06    1.304387e-07
    0.094594595      0.99428399               0   3.6430113e-17               0               0               0    0.0096779547       58.676889    5.579874e-06    1.118032e-07
    0.096696697      0.90625955               0   5.5397101e-17  -0.00046034342  -3.0792165e-06               0     0.010450759       1403648.6   5.3163213e-06     8.75127e-08
    0.098798799      0.64576759               0   5.5398306e-17   -0.0018293568  -1.2236485e-05               0     0.010534219       5577747.3    3.961114e-06   5.2059822e-08
      0.1009009      0.38532887               0   4.2958715e-17   -0.0028986243  -1.7532888e-05   8.0159539e-20    0.0096875215       9751066.3   2.4730429e-06   2.4659862e-08
       0.103003      0.12496111               0   1.3931395e-17   -0.0035682308  -1.7681469e-05   2.6719846e-19    0.0076006127        13923346   8.0782031e-07   7.9971267e-09
     0.10510511               0               0               0   -0.0035204836   -1.303162e-05   4.5595349e-19    0.0059398278        15925793   1.2679336e-08               0
     0.10720721               0               0               0   -0.0028107207  -3.9535019e-06   6.4629223e-19    0.0046722946        15925793   2.0500248e-08               0
     0.10930931               0               0               0   -0.0025149079  -2.0068196e-07   5.7090992e-19    0.0042348396        15925793   2.6475001e-08               0
     0.11141141               0               0               0   -0.0024995528  -5.5836406e-08   3.1549736e-19    0.0043597758        15925793    3.119895e-08               0
     0.11351351               0               0               0   -0.0024866242  -7.0259794e-09   1.0486938e-19    0.0044860889        15925793     3.33155e-08               0
     0.11561562               0               0               0   -0.0024749673  -8.5428573e-09  -8.2289212e-20    0.0046131234        15925793    3.406564e-08               0
     0.11771772               0               0               0   -0.0024512945  -1.0553159e-08  -8.9436582e-20    0.0046242296        15925793   3.3780188e-08               0
     0.11981982               0               0               0   -0.0024224603  -1.2775416e-08  -1.9258027e-20    0.0045855375        15925793   3.3049885e-08               0
     0.12192192               0               0               0   -0.0023919493  -1.3306204e-08               0    0.0045066472        15925793   3.2168505e-08               0
     0.12402402               0               0               0   -0.0023608042  -1.3197281e-08               0    0.0044125541        15925793   3.1229989e-08               0
     0.12612613               0               0               0   -0.0023321266  -1.2568549e-08               0    0.0043379235        15925793   3.0380875e-08               0
     0.12822823               0               0               0   -0.0023043445  -1.1751146e-08               0    0.0042703571        15925793   2.9564211e-08               0
     0.13033033               0               0               0   -0.0022794535  -1.0948331e-08               0    0.0042222235        15925793   2.8838778e-08               0
     0.13243243               0               0               0   -0.0022556692  -1.0151099e-08               0    0.0041815289        15925793   2.8148269e-08               0
     0.13453453               0               0               0   -0.0022341232  -9.4715278e-09  -1.4519463e-19    0.0041444018        15925793   2.7524442e-08               0
     0.13663664               0               0               0   -0.0022135674  -8.8440073e-09  -3.5462066e-19    0.0041088528        15925793   2.6930115e-08               0
     0.13873874               0               0               0    -0.002194636  -8.3039088e-09  -4.2930945e-19    0.0040734457        15925793   2.6386143e-08               0
     0.14084084               0               0               0   -0.0021766051  -7.8122706e-09  -4.2930949e-19    0.0040381172        15925793   2.5870084e-08               0
     0.14294294               0               0               0   -0.0021597383  -7.3827522e-09  -4.0592196e-19    0.0040042028        15925793   2.5390941e-08               0
     0.14504505               0               0               0   -0.0021437406  -6.9995971e-09  -3.6507899e-19    0.0039713438        15925793   2.4939351e-08               0
     0.14714715               0               0               0   -0.0021284894  -6.6601465e-09  -2.7229753e-19    0.0039398459        15925793   2.4510556e-08               0
     0.14924925               0               0               0   -0.0021140461  -6.3679861e-09   -1.233163e-19    0.0039098207        15925793   2.4106429e-08               0
     0.15135135               0               0               0   -0.0021000451   -6.095397e-09  -1.9505411e-20    0.0038805884        15925793   2.3715715e-08               0
     0.15345345               0               0               0   -0.0020868117  -5.8567691e-09   5.9233389e-21     0.003852732        15925793   2.3348279e-08               0
     0.15555556               0               0               0   -0.0020738227   -5.624457e-09  -7.6191109e-21    0.0038252988        15925793   2.2988688e-08               0
     0.15765766               0               0               0   -0.0020616629  -5.4135672e-09  -1.5334444e-19    0.0037993008        15925793   2.2655709e-08               0
     0.15975976               0               0               0   -0.0020495667  -5.2041212e-09  -2.7340636e-19    0.0037734236        15925793   2.2324778e-08               0
     0.16186186               0               0               0   -0.0020383743   -5.015192e-09  -2.8791836e-20    0.0037492633        15925793   2.2022939e-08               0
     0.16396396               0               0               0   -0.0020271818  -4.8262627e-09   2.1582269e-19     0.003725103        15925793   2.1721099e-08               0
     0.16606607               0               0               0   -0.0020167648  -4.6554083e-09   2.4545413e-19    0.0037025445        15925793   2.1443844e-08               0
     0.16816817               0               0               0   -0.0020064547  -4.4870452e-09   2.4545416e-19    0.0036802068        15925793   2.1169978e-08               0
     0.17027027               0               0               0   -0.0019966676  -4.3329645e-09   1.4115387e-19    0.0036588678        15925793   2.0912339e-08               0
     0.17237237               0               0               0   -0.0019871425   -4.186042e-09  -1.5420238e-20    0.0036380294        15925793   2.0662832e-08               0
     0.17447447               0               0               0   -0.0019779109  -4.0471382e-09  -1.0519557e-19    0.0036177526        15925793   2.0422291e-08               0
     0.17657658               0               0               0   -0.0019690734  -3.9190113e-09  -1.0519558e-19    0.0035982304        15925793   2.0193799e-08               0
     0.17867868               0               0               0   -0.0019603336  -3.7933703e-09  -1.1058524e-19    0.0035788811        15925793   1.9968265e-08               0
     0.18078078               0               0               0   -0.0019521088  -3.6808437e-09  -1.4440866e-19     0.003560444        15925793   1.9758339e-08               0
     0.18288288               0               0               0   -0.0019438841   -3.568317e-09  -1.7823207e-19    0.0035420069        15925793   1.9548413e-08               0
     0.18498498               0               0               0   -0.0019361288  -3.4676826e-09  -1.1926622e-19    0.0035244542        15925793   1.9352555e-08               0
     0.18708709               0               0               0   -0.0019284479  -3.3689316e-09  -4.5605278e-20    0.0035070414        15925793   1.9158924e-08               0
     0.18918919               0               0               0   -0.0019210271  -3.2762179e-09   3.0164644e-20     0.003490094        15925793   1.8973012e-08               0
     0.19129129               0               0               0   -0.0019138304  -3.1887015e-09   1.0775016e-19    0.0034735472        15925793   1.8793746e-08               0
     0.19339339               0               0               0    -0.001906713  -3.1027928e-09   1.5838034e-19    0.0034571499        15925793   1.8616816e-08               0
      0.1954955               0               0               0   -0.0018999554  -3.0241809e-09   8.6662121e-20    0.0034414311        15925793    1.845049e-08               0
      0.1975976               0               0               0   -0.0018931978  -2.9455689e-09   1.4943899e-20    0.0034257123        15925793   1.8284164e-08               0
      0.1996997               0               0               0   -0.0018867581  -2.8729109e-09               0    0.0034107181        15925793   1.8127066e-08               0
      0.2018018               0               0               0   -0.0018804022  -2.8018199e-09               0    0.0033959146        15925793   1.7972397e-08               0
      0.2039039               0               0               0   -0.0018741825  -2.7333767e-09  -2.0238766e-20    0.0033812886        15925793   1.7821639e-08               0
     0.20600601               0               0               0   -0.0018681955  -2.6694521e-09  -7.5017331e-20    0.0033669655        15925793   1.7677557e-08               0
     0.20810811               0               0               0   -0.0018622084  -2.6055274e-09   -1.297959e-19    0.0033526425        15925793   1.7533475e-08               0
     0.21021021               0               0               0   -0.0018565264  -2.5472861e-09  -1.3457187e-19    0.0033389252        15925793   1.7398104e-08               0
     0.21231231               0               0               0   -0.0018508736  -2.4895875e-09   -1.345719e-19    0.0033252657        15925793   1.7263566e-08               0
     0.21441441               0               0               0   -0.0018453509  -2.4339757e-09  -1.1220672e-19    0.0033119569        15925793   1.7132684e-08               0
     0.21651652               0               0               0   -0.0018400078  -2.3812407e-09  -5.9006181e-20    0.0032991313        15925793   1.7006844e-08               0
     0.21861862               0               0               0   -0.0018346647  -2.3285057e-09  -5.8056427e-21    0.0032863057        15925793   1.6881003e-08               0
     0.22072072               0               0               0   -0.0018295774    -2.28056e-09               0     0.003273723        15925793   1.6762254e-08               0
     0.22282282               0               0               0   -0.0018245213   -2.233201e-09               0      0.00326117        15925793   1.6644375e-08               0
     0.22492492               0               0               0   -0.0018195484  -2.1873594e-09               0    0.0032487791        15925793   1.6528797e-08               0
     0.22702703               0               0               0   -0.0018147499  -2.1447006e-09               0    0.0032367278        15925793   1.6418048e-08               0
     0.22912913               0               0               0   -0.0018099513  -2.1020418e-09               0    0.0032246765        15925793     1.63073e-08               0
     0.23123123               0               0               0   -0.0018053248  -2.0616747e-09  -2.7820049e-20    0.0032131392        15925793   1.6201251e-08               0
     0.23333333               0               0               0    -0.001800767  -2.0222215e-09  -6.6734614e-20    0.0032018069        15925793   1.6097075e-08               0
