#      distance             U_x             U_y             U_z wallShearStr... wallShearStr... wallShearStr...               p           omega               k             nut
  5.5511169e-17      0.99945981   3.4795381e-22               0               0               0               0    0.0045516226       82.608728   1.4478261e-05   1.7503881e-07
   0.0021021021      0.99944382   3.4795381e-22               0               0               0               0    0.0045671887        81.76455   1.4318684e-05   1.7489776e-07
   0.0042042042      0.99942783   3.4795381e-22               0               0               0               0    0.0045827549       80.920373   1.4159108e-05    1.747567e-07
   0.0063063063      0.99941185   3.4795381e-22               0               0               0               0     0.004598321       80.076195   1.3999531e-05   1.7461565e-07
   0.0084084084      0.99939586   3.4795381e-22               0               0               0               0    0.0046138871       79.232018   1.3839955e-05    1.744746e-07
    0.010510511      0.99937987   3.4795381e-22               0               0               0               0    0.0046294533        78.38784   1.3680379e-05   1.7433354e-07
    0.012612613      0.99936388   3.4795381e-22               0               0               0               0    0.0046450194       77.543663   1.3520802e-05   1.7419249e-07
    0.014714715       0.9993479   3.4795381e-22               0               0               0               0    0.0046605855       76.699485   1.3361226e-05   1.7405144e-07
    0.016816817      0.99933191   3.4795381e-22               0               0               0               0    0.0046761517       75.855307   1.3201649e-05   1.7391038e-07
    0.018918919      0.99931592   3.4795381e-22               0               0               0               0    0.0046917178        75.01113   1.3042073e-05   1.7376933e-07
    0.021021021      0.99929993   3.4795381e-22               0               0               0               0    0.0047072839       74.166952   1.2882496e-05   1.7362827e-07
    0.023123123      0.99927333   5.6824696e-22               0               0               0               0    0.0047335222         73.4987   1.2757391e-05   1.7349595e-07
    0.025225225      0.99924638   5.6824696e-22               0               0               0               0    0.0047601095         72.8362   1.2633413e-05   1.7336391e-07
    0.027327327      0.99921943   5.6824696e-22               0               0               0               0    0.0047866968       72.173701   1.2509435e-05   1.7323187e-07
    0.029429429      0.99919248   5.6824696e-22               0               0               0               0    0.0048132841       71.511201   1.2385457e-05   1.7309983e-07
    0.031531532      0.99916554   5.6824696e-22               0               0               0               0    0.0048398713       70.848701   1.2261478e-05    1.729678e-07
    0.033633634      0.99913859   5.6824696e-22               0               0               0               0    0.0048664586       70.186202     1.21375e-05   1.7283576e-07
    0.035735736      0.99911164   5.6824696e-22               0               0               0               0    0.0048930459       69.523702   1.2013522e-05   1.7270372e-07
    0.037837838      0.99908469   5.6824696e-22               0               0               0               0    0.0049196331       68.861202   1.1889544e-05   1.7257168e-07
     0.03993994      0.99905774   5.6824696e-22               0               0               0               0    0.0049462204       68.198702   1.1765566e-05   1.7243964e-07
    0.042042042      0.99903079   5.6824696e-22               0               0               0               0    0.0049728077       67.536203   1.1641587e-05    1.723076e-07
    0.044144144      0.99900384   5.6824696e-22               0               0               0               0    0.0049993949       66.873703   1.1517609e-05   1.7217557e-07
    0.046246246      0.99897689   5.6824696e-22               0               0               0               0    0.0050259822       66.211203   1.1393631e-05   1.7204353e-07
    0.048348348      0.99893607   1.0216194e-21               0               0               0               0    0.0050650137       65.615146   1.1282569e-05   1.7191562e-07
     0.05045045      0.99888842   1.0216194e-21               0               0               0               0    0.0051101551        65.05171   1.1177849e-05   1.7178975e-07
    0.052552553      0.99884078   1.0216194e-21               0               0               0               0    0.0051552964       64.488274   1.1073128e-05   1.7166387e-07
    0.054654655      0.99879313   1.0216194e-21               0               0               0               0    0.0052004378       63.924839   1.0968408e-05     1.71538e-07
    0.056756757      0.99874549   1.0216194e-21               0               0               0               0    0.0052455791       63.361403   1.0863687e-05   1.7141213e-07
    0.058858859      0.99869785   1.0216194e-21               0               0               0               0    0.0052907205       62.797967   1.0758967e-05   1.7128625e-07
    0.060960961       0.9986502   1.0216194e-21               0               0               0               0    0.0053358618       62.234532   1.0654246e-05   1.7116038e-07
    0.063063063      0.99860256   1.0216194e-21               0               0               0               0    0.0053810032       61.671096   1.0549526e-05    1.710345e-07
    0.065165165      0.99855491   1.0216194e-21               0               0               0               0    0.0054261446        61.10766   1.0444806e-05   1.7090863e-07
    0.067267267      0.99848161   1.5268778e-21               0               0               0               0    0.0055004613       60.594634   1.0349833e-05    1.707864e-07
    0.069369369      0.99840396   1.5268778e-21               0               0               0               0    0.0055797308       60.090164   1.0256516e-05   1.7066479e-07
    0.071471471      0.99832631   1.5268778e-21               0               0               0               0    0.0056590002       59.585694   1.0163198e-05   1.7054317e-07
    0.073573574      0.99824865   1.5268778e-21               0               0               0               0    0.0057382696       59.081224   1.0069881e-05   1.7042156e-07
    0.075675676        0.998171   1.5268778e-21               0               0               0               0    0.0058175391       58.576755   9.9765634e-06   1.7029995e-07
    0.077777778      0.99809334   1.5268778e-21               0               0               0               0    0.0058968085       58.072285    9.883246e-06   1.7017834e-07
     0.07987988      0.99796055   3.7825229e-21               0               0               0               0    0.0060127568       57.587675   9.7937565e-06   1.7005833e-07
    0.081981982      0.99777984   3.7825229e-21               0               0               0               0    0.0061605756       57.120321   9.7075933e-06    1.699397e-07
    0.084084084      0.99759913   3.7825229e-21               0               0               0               0    0.0063083944       56.652968   9.6214301e-06   1.6982107e-07
    0.086186186      0.99741842   3.7825229e-21               0               0               0               0    0.0064562132       56.185614   9.5352668e-06   1.6970245e-07
    0.088288288       0.9972373   7.7190149e-21               0               0               0               0    0.0066048607       55.718375   9.4491254e-06   1.6958383e-07
     0.09039039      0.99696722   7.7190149e-21               0               0               0               0    0.0069334477       55.276086   9.3677278e-06   1.6946662e-07
    0.092492492      0.99669713   7.7190149e-21               0               0               0               0    0.0072620347       54.833796   9.2863302e-06   1.6934942e-07
    0.094594595      0.99642705   7.7190149e-21               0               0               0               0    0.0075906216       54.391506   9.2049326e-06   1.6923221e-07
    0.096696697      0.83437385   9.0100006e-20               0  -0.00054359329  -5.7504591e-07               0    0.0079568002       61.565416   9.1590483e-06   3.3090284e-07
    0.098798799      0.62033353   9.0100006e-20               0   -0.0012618639  -1.3348761e-06               0    0.0083350584       71.186702   9.1245759e-06   5.4456208e-07
      0.1009009      0.35479978   8.4203278e-20               0   -0.0021426817  -2.7051732e-06               0    0.0084583833       83.294415   9.1681495e-06   8.0792621e-07
       0.103003     0.020608104   8.4203278e-20               0    -0.003240229  -4.8894262e-06               0    0.0082417971       98.717364   9.3157845e-06   1.1375635e-06
     0.10510511   1.0765888e-16   1.5575927e-19               0   -0.0032620058  -6.4343768e-06               0    0.0075653799       99.668428   9.6928324e-06   1.1498813e-06
     0.10720721   1.0618971e-16   1.9562749e-19               0   -0.0032127004  -7.7227218e-06               0    0.0069338103       99.668428    1.033344e-05   1.1412335e-06
     0.10930931   1.0618971e-16   1.9562749e-19               0   -0.0031628236  -8.6922646e-06               0    0.0064137616       99.668428   1.1343201e-05   1.1324197e-06
     0.11141141   1.0462371e-16   2.3103186e-19               0   -0.0031135456  -9.6591215e-06               0    0.0061042795        191.9267    0.0004525556   1.1236109e-06
     0.11351351   1.0307257e-16    2.757791e-19               0   -0.0030649664  -1.0596882e-05               0    0.0058574721       314.58014    0.0010849059   1.1148836e-06
     0.11561562   1.0307257e-16    2.757791e-19               0   -0.0030188466  -1.1410929e-05               0     0.005680856         480.725     0.002124907    1.106505e-06
     0.11771772   1.0157648e-16   3.0355388e-19               0   -0.0029744954  -1.1965441e-05               0    0.0055256253       608.84102     0.003103976   1.0983925e-06
     0.11981982   1.0157648e-16   3.0355388e-19               0    -0.002931876   -1.226583e-05               0    0.0053913342       699.72101    0.0040233832   1.0905406e-06
     0.12192192   1.0013799e-16   3.0680575e-19               0   -0.0028918188  -1.2259981e-05               0    0.0052752265        764.6076    0.0047769612   1.0830807e-06
     0.12402402   1.0013799e-16   3.0680575e-19               0   -0.0028525201  -1.2163487e-05               0    0.0051645011       821.80022    0.0054814544   1.0757368e-06
     0.12612613   9.8755739e-17   2.9958246e-19               0   -0.0028161211  -1.1912298e-05               0    0.0050692742       857.85424    0.0059753487   1.0688432e-06
     0.12822823   9.7419429e-17   2.8748737e-19               0   -0.0027801231   -1.164684e-05               0    0.0049767474       891.54796    0.0064408352   1.0620119e-06
     0.13033033   9.7419429e-17   2.8748737e-19               0   -0.0027462599  -1.1310204e-05               0     0.004898974       913.05327    0.0067555365   1.0555122e-06
     0.13243243   9.6118512e-17   2.7072578e-19               0   -0.0027128712  -1.0960557e-05               0    0.0048246357       932.27383    0.0070384385   1.0490841e-06
     0.13453453   9.6118512e-17   2.7072578e-19               0   -0.0026809487    -1.05707e-05               0     0.004760914       944.43294    0.0072230591   1.0428769e-06
     0.13663664   9.4830686e-17   2.5125505e-19               0   -0.0026494461  -1.0182314e-05               0    0.0046988792         954.845    0.0073816955   1.0367292e-06
     0.13873874   9.4830686e-17   2.5125505e-19               0   -0.0026189831  -9.7975729e-06               0    0.0046410203       960.93224    0.0074760082   1.0307285e-06
     0.14084084   9.3546129e-17   2.3298615e-19               0   -0.0025888572  -9.4234129e-06               0     0.004583114       965.94787    0.0075538027   1.0247737e-06
     0.14294294   9.3546129e-17   2.3298615e-19               0   -0.0025596387  -9.0777343e-06               0    0.0045250801       968.07911    0.0075871369   1.0189423e-06
     0.14504505    9.226125e-17   2.1596774e-19               0   -0.0025306437   -8.738645e-06               0    0.0044670392        969.7179     0.007612766   1.0131412e-06
     0.14714715    9.226125e-17   2.1596774e-19               0   -0.0025025889  -8.4272717e-06               0    0.0044089685       969.28539    0.0076059856   1.0074674e-06
     0.14924925   9.0976572e-17   1.9998386e-19               0    -0.002474591  -8.1173099e-06               0    0.0043509661       968.77211    0.0075979431   1.0018015e-06
     0.15135135   9.0976572e-17   1.9998386e-19               0   -0.0024476897  -7.8345059e-06               0     0.004294279       966.70499    0.0075656167   9.9628747e-07
     0.15345345   9.0976572e-17   1.9998386e-19               0   -0.0024207884  -7.5517018e-06               0    0.0042375919       964.63788    0.0075332904   9.9077347e-07
     0.15555556   8.9694698e-17   1.8488261e-19               0   -0.0023948811   -7.288341e-06               0    0.0041826747       961.72281    0.0074879353   9.8540272e-07
     0.15765766   8.9694698e-17   1.8488261e-19               0    -0.002369162  -7.0286589e-06               0    0.0041280923       958.64732    0.0074401151   9.8005908e-07
     0.15975976   8.8420313e-17   1.7041337e-19               0   -0.0023441517  -6.7763784e-06               0    0.0040750535       955.24221    0.0073874245   9.7482331e-07
     0.16186186   8.8420313e-17   1.7041337e-19               0   -0.0023196882  -6.5298069e-06               0    0.0040232053       951.58286    0.0073309773   9.6967075e-07
     0.16396396   8.7161525e-17   1.5579423e-19               0   -0.0022955361  -6.2852656e-06               0    0.0039723863       947.86194    0.0072737045   9.6456922e-07
     0.16606607   8.7161525e-17   1.5579423e-19               0   -0.0022724994  -6.0479956e-06               0    0.0039252535       943.92051    0.0072134751   9.5965042e-07
     0.16816817   8.7161525e-17   1.5579423e-19               0   -0.0022494627  -5.8107256e-06               0    0.0038781207       939.97908    0.0071532457   9.5473163e-07
     0.17027027   8.5935024e-17   1.4130063e-19               0   -0.0022275316  -5.5906962e-06               0    0.0038352794       936.02065    0.0070932464   9.4999802e-07
     0.17237237   8.5935024e-17   1.4130063e-19               0   -0.0022058772  -5.3749797e-06               0    0.0037935117       932.05796    0.0070333046   9.4531075e-07
     0.17447447   8.4727553e-17   1.2834256e-19               0   -0.0021846394  -5.1662829e-06               0    0.0037522956       928.13182    0.0069741043   9.4069543e-07
     0.17657658   8.4727553e-17   1.2834256e-19               0   -0.0021643409  -4.9734151e-06               0    0.0037123234       924.28811    0.0069165759   9.3624238e-07
     0.17867868   8.4727553e-17   1.2834256e-19               0   -0.0021440424  -4.7805473e-06               0    0.0036723513       920.44439    0.0068590475   9.3178934e-07
     0.18078078   8.3558473e-17   1.1607177e-19               0   -0.0021248487  -4.5982596e-06               0     0.003632269       916.71314    0.0068036342    9.275382e-07
     0.18288288   8.3558473e-17   1.1607177e-19               0   -0.0021060473  -4.4197283e-06               0    0.0035921478       913.02182    0.0067489719   9.2335875e-07
     0.18498498   8.2434997e-17    1.042929e-19               0   -0.0020873816  -4.2423814e-06               0    0.0035522492       909.34647    0.0066945957   9.1920497e-07
     0.18708709   8.2434997e-17    1.042929e-19               0   -0.0020700907  -4.0770401e-06               0     0.003514609       905.83309    0.0066431187   9.1531148e-07
     0.18918919   8.2434997e-17    1.042929e-19               0   -0.0020527998  -3.9116988e-06               0    0.0034769687       902.31972    0.0065916418   9.1141799e-07
     0.19129129   8.1363235e-17   9.3027533e-20               0   -0.0020360523  -3.7510507e-06               0    0.0034410471       898.88016     0.006541428   9.0763083e-07
     0.19339339   8.1363235e-17   9.3027533e-20               0   -0.0020202698  -3.5987371e-06               0    0.0034081777        895.5717    0.0064934576   9.0403248e-07
      0.1954955   8.1363235e-17   9.3027533e-20               0   -0.0020044873  -3.4464234e-06               0    0.0033753084       892.26324    0.0064454871   9.0043414e-07
      0.1975976   8.0349416e-17   8.2336525e-20               0   -0.0019895223  -3.3013648e-06               0    0.0033451133        889.0901     0.006399724   8.9700082e-07
      0.1996997   8.0349416e-17   8.2336525e-20               0   -0.0019752347   -3.162318e-06               0    0.0033171345       886.02908    0.0063557901   8.9370425e-07
      0.2018018   8.0349416e-17   8.2336525e-20               0   -0.0019609471  -3.0232713e-06               0    0.0032891556       882.96806    0.0063118561   8.9040768e-07
      0.2039039   7.9398893e-17   7.2317409e-20               0   -0.0019476087  -2.8924253e-06               0    0.0032643334       880.08673    0.0062707511   8.8730835e-07
     0.20600601   7.9398893e-17   7.2317409e-20               0   -0.0019347882  -2.7660532e-06               0    0.0032412333       877.30343    0.0062311894   8.8431663e-07
     0.20810811   7.9398893e-17   7.2317409e-20               0   -0.0019219676  -2.6396812e-06               0    0.0032181332       874.52013    0.0061916276   8.8132491e-07
     0.21021021   7.8516418e-17   6.2890966e-20               0   -0.0019100888   -2.521035e-06               0    0.0031977908       871.92953    0.0061550166   8.7853427e-07
     0.21231231   7.8516418e-17   6.2890966e-20               0   -0.0018986992  -2.4064027e-06               0    0.0031788811       869.43904    0.0061199386   8.7584811e-07
     0.21441441   7.8516418e-17   6.2890966e-20               0   -0.0018873097  -2.2917705e-06               0    0.0031599714       866.94856    0.0060848606   8.7316195e-07
     0.21651652   7.7706412e-17   5.4074561e-20               0   -0.0018767124  -2.1842669e-06               0    0.0031422107       864.62849     0.006052333   8.7064912e-07
     0.21861862   7.7706412e-17   5.4074561e-20               0   -0.0018666951  -2.0819821e-06               0    0.0031252911       862.43319    0.0060216724   8.6826317e-07
     0.22072072   7.7706412e-17   5.4074561e-20               0   -0.0018566778  -1.9796973e-06               0    0.0031083715       860.23788    0.0059910118   8.6587722e-07
     0.22282282   7.6970194e-17   4.6052577e-20               0   -0.0018471744  -1.8825038e-06               0    0.0030920126       858.15746    0.0059620379   8.6360606e-07
     0.22492492   7.6970194e-17   4.6052577e-20               0   -0.0018384358  -1.7928856e-06               0    0.0030764879       856.24798    0.0059355737   8.6150569e-07
     0.22702703   7.6970194e-17   4.6052577e-20               0   -0.0018296971  -1.7032674e-06               0    0.0030609631       854.33851    0.0059091095   8.5940532e-07
     0.22912913    7.630617e-17   3.8805114e-20               0   -0.0018211088  -1.6151796e-06               0    0.0030457619       852.46348    0.0058831429   8.5733915e-07
     0.23123123    7.630617e-17   3.8805114e-20               0   -0.0018135363  -1.5374256e-06               0    0.0030327446       850.82103    0.0058605365   8.5550395e-07
     0.23333333    7.630617e-17   3.8805114e-20               0   -0.0018059637  -1.4596716e-06               0    0.0030197273       849.17859    0.0058379302   8.5366875e-07
