#      distance             U_x             U_y             U_z wallShearStr... wallShearStr... wallShearStr...               p           omega               k             nut
    0.034013023      0.99914711   5.1098211e-06               0               0               0               0    0.0048550912       69.038379   1.1919981e-05   1.7265716e-07
    0.056204344      0.99878889   9.1866609e-06               0               0               0               0    0.0052144134       62.950837   1.0786219e-05   1.7134347e-07
    0.072112662      0.99830707   1.3730074e-05               0               0               0               0    0.0056510448       59.102588   1.0073304e-05   1.7043757e-07
    0.083516877      0.99780715   3.4013407e-05               0               0               0               0    0.0062164092        56.57384   9.6065915e-06   1.6980623e-07
     0.09169223      0.99666989   6.9411344e-05               0               0               0               0    0.0069906206        54.86755   9.2925137e-06   1.6936264e-07
    0.097552904      0.99564016   0.00081020216               0  -1.3873735e-06  -1.4676477e-09               0    0.0083502794       53.720122   9.0779149e-06   1.6945779e-07
     0.10156632      0.98101496   0.00075717728               0  -4.1316746e-06  -5.6357469e-09               0    0.0087511327        99.64936   9.1320888e-06   8.2137641e-08
     0.10474707        0.968096     0.001400627               0  -5.4262619e-06  -1.0251406e-08               0    0.0077051169       99.668428   9.5180054e-06   4.4801371e-08
     0.10802554      0.95488485    0.0017591321               0  -5.2984105e-06  -1.3440069e-08               0    0.0065811666       99.668428   1.0337221e-05   3.2892779e-08
     0.11140473      0.94080296    0.0020774972               0  -5.1663652e-06  -1.6021665e-08               0    0.0060585331       99.820912   1.3442113e-05    3.018248e-08
     0.11488774      0.92685479    0.0024798758               0  -5.0354752e-06   -1.846573e-08               0    0.0057226642       467.19685    0.0017676076    3.176073e-06
     0.11847776      0.91340148    0.0027296337               0  -4.9098209e-06  -2.0033696e-08               0    0.0054643452       658.54683     0.003511124   5.3245572e-06
     0.12217807      0.90046622    0.0027588753               0  -4.7902635e-06  -2.0322689e-08               0    0.0052570098       782.36201    0.0049553372   6.3251538e-06
     0.12599207      0.88803671    0.0026939216               0  -4.6764556e-06  -1.9792146e-08               0    0.0050686198        862.9601    0.0060288561   6.9764974e-06
     0.12992323      0.87602027    0.0025851595               0  -4.5675738e-06  -1.8874466e-08               0    0.0049071197       913.97044    0.0067626414   7.3887221e-06
     0.13397518      0.86432209     0.002434435               0    -4.46242e-06   -1.771141e-08               0    0.0047733253       944.61829    0.0072237758   7.6363821e-06
     0.13815161      0.85274163    0.0022593493               0  -4.3596279e-06  -1.6434786e-08               0    0.0046577351        961.5592    0.0074852005   7.4788008e-06
     0.14245635      0.84119057    0.0020950707               0  -4.2582663e-06   -1.519487e-08               0    0.0045399304        969.1754    0.0076042452   7.2091047e-06
     0.14689334      0.82963661    0.0019420368               0  -4.1580053e-06   -1.404521e-08               0    0.0044164528       970.42212    0.0076238219   6.8883164e-06
     0.15146665      0.81808446    0.0017983057               0   -4.058846e-06  -1.2973556e-08               0    0.0042910798       967.32333    0.0075752111   6.5483477e-06
     0.15618046      0.80655753    0.0016625114               0  -3.9609864e-06  -1.1964988e-08               0    0.0041660671       961.29265    0.0074810524   6.2096124e-06
     0.16103908      0.79509793    0.0015324004               0   -3.864797e-06  -1.0994622e-08               0    0.0040425837       953.32224    0.0073575117   5.8850079e-06
     0.16604698      0.78377859    0.0014009413               0  -3.7709592e-06  -1.0038625e-08               0    0.0039227699        944.1214    0.0072161781   5.5829188e-06
     0.17120873      0.77274958    0.0012706112               0  -3.6799596e-06  -9.1164908e-09               0    0.0038146165       934.25907    0.0070662056   5.3128244e-06
     0.17652907      0.76189169    0.0011540889               0  -3.5919129e-06  -8.2593005e-09               0    0.0037145368       924.36633    0.0069173526   5.0694554e-06
     0.18201286      0.75137903    0.0010437469               0  -3.5073405e-06  -7.4559742e-09               0    0.0036092153       914.50824    0.0067705973   4.8580345e-06
     0.18766512      0.74127644   0.00093782824               0  -3.4268794e-06  -6.6893332e-09               0    0.0035020457       904.81581    0.0066278421   4.6741309e-06
     0.19349103      0.73163889   0.00083652723               0  -3.3508876e-06  -5.9594146e-09               0    0.0034037395       895.32851    0.0064895814   4.5150845e-06
     0.19949593      0.72252237   0.00074039097               0   -3.279678e-06  -5.2693952e-09               0    0.0033170972       886.19989    0.0063579236   4.3802215e-06
     0.20568532      0.71397503   0.00065029652               0  -3.2135149e-06  -4.6215226e-09               0    0.0032414719       877.57571    0.0062347804   4.2690311e-06
     0.21206485      0.70603959   0.00056553155               0  -3.1526143e-06  -4.0151799e-09               0    0.0031790075       869.56182    0.0061214306   4.1806888e-06
     0.21864039      0.69875581    0.0004862522               0  -3.0971151e-06  -3.4527417e-09               0    0.0031249545       862.23064    0.0060186477   4.1145695e-06
     0.22541793      0.69213555   0.00041411648               0  -3.0469977e-06  -2.9399456e-09               0    0.0030715533       855.61989    0.0059267114   4.0695906e-06
     0.23240371      0.68616448   0.00034894544               0  -3.0020761e-06  -2.4789933e-09               0    0.0030233343       849.73137    0.0058454149   4.0442654e-06
      0.2396041        0.680816   0.00029067377               0  -2.9620635e-06  -2.0705162e-09               0    0.0029837263       844.53828    0.0057741854   4.0368905e-06
      0.2470257      0.67605397   0.00024024533               0  -2.9266093e-06  -1.7163354e-09               0    0.0029510322        839.9932    0.0057122025   4.0455884e-06
     0.25467531      0.67183168   0.00019752372               0   -2.895314e-06  -1.4147701e-09               0    0.0029237042       836.03403    0.0056584825   4.0683152e-06
     0.26255994      0.66809906   0.00016133598               0  -2.8677799e-06  -1.1593786e-09               0    0.0029026285       832.59321    0.0056120021   4.1029726e-06
      0.2706868      0.66481683    0.0001305888               0  -2.8436477e-06    -9.44071e-10               0    0.0028864668       829.61153    0.0055718793   4.1475109e-06
     0.27906334      0.66194193   0.00010520296               0  -2.8225494e-06  -7.6518961e-10               0    0.0028673904       827.03934    0.0055373828   4.2021271e-06
     0.28769723      0.65941771   8.4340801e-05               0  -2.8040591e-06  -6.1976382e-10               0     0.002844361       824.81499    0.0055076376   4.2654735e-06
     0.29659637      0.65718195   6.8017354e-05               0  -2.7877137e-06  -5.0638265e-10               0    0.0028218498       822.86496     0.005481627   4.3355128e-06
     0.30576892      0.65517252   5.6539813e-05               0  -2.7730568e-06  -4.2372078e-10               0    0.0028009538       821.11086    0.0054582826   4.4099118e-06
     0.31522326       0.6533324    4.904544e-05               0  -2.7596936e-06  -3.6577925e-10               0    0.0027818011       819.48683    0.0054367138   4.4863605e-06
     0.32496807      0.65162544   4.3563776e-05               0  -2.7473349e-06  -3.2479949e-10               0    0.0027659694       817.94478    0.0054162733   4.5634708e-06
     0.33501226      0.65002485    4.013627e-05               0  -2.7357502e-06  -2.9821487e-10               0    0.0027459078       816.45052    0.0053965031   4.6402323e-06
     0.34536503      0.64849535    3.920179e-05               0  -2.7246952e-06    -2.85925e-10               0    0.0027168581       814.97332    0.0053769942   4.7155318e-06
     0.35603587       0.6470005   3.9957903e-05               0  -2.7139241e-06  -2.8521183e-10               0    0.0026856052       813.48513    0.0053573757   4.7882601e-06
     0.36703454      0.64551273   4.1917511e-05               0   -2.703237e-06     -2.9233e-10               0    0.0026564493       811.96419    0.0053373627   4.8575429e-06
     0.37837111      0.64401262    4.455683e-05               0  -2.6924978e-06  -3.0386461e-10               0    0.0026292907       810.39417     0.005316743   4.9226676e-06
     0.39005597      0.64249066   4.7302229e-05               0  -2.6816265e-06  -3.1738528e-10               0    0.0026025046       808.76679    0.0052954121   4.9830708e-06
     0.40209982       0.6409401    5.029226e-05               0  -2.6705648e-06  -3.3314873e-10               0    0.0025709713       807.07875    0.0052733312   5.0384282e-06
     0.41451368      0.63935078   5.4047479e-05               0  -2.6592272e-06  -3.5268003e-10               0    0.0025340596       805.32669    0.0052504614   5.0882265e-06
     0.42730893       0.6377009   5.8428636e-05               0  -2.6474913e-06  -3.7523922e-10               0    0.0024967388       803.49975    0.0052266673    5.134054e-06
     0.44049728      0.63597428   6.2701674e-05               0  -2.6352626e-06  -3.9758053e-10               0     0.002461427       801.58735    0.0052018179   5.1755338e-06
      0.4540908      0.63417025    6.633676e-05               0  -2.6225253e-06  -4.1710044e-10               0    0.0024275079       799.59014    0.0051759294    5.211931e-06
     0.46810195      0.63229573   6.9444513e-05               0  -2.6093123e-06  -4.3344801e-10               0    0.0023891818       797.51743    0.0051491306   5.2428078e-06
     0.48254356      0.63035424   7.2133396e-05               0  -2.5956566e-06    -4.46791e-10               0    0.0023455285       795.37826    0.0051215451   5.2680716e-06
     0.49742885      0.62834872   7.4182398e-05               0  -2.5815995e-06  -4.5606639e-10               0    0.0023022594       793.18001     0.005093275   5.2880428e-06
     0.51277145      0.62629142   7.5192399e-05               0   -2.567228e-06  -4.5978485e-10               0    0.0022637053       790.93509    0.0050644853   5.3034755e-06
     0.52858541      0.62420302   7.5161902e-05               0  -2.5526653e-06  -4.5808922e-10               0    0.0022264612       788.66287    0.0050354283   5.3151885e-06
     0.54488522      0.62209901   7.4564615e-05               0  -2.5380112e-06  -4.5278733e-10               0     0.002184925       786.37926    0.0050063098   5.3240148e-06
     0.56168579      0.61998408   7.3641562e-05               0  -2.5233119e-06  -4.4540022e-10               0    0.0021412911        784.0896    0.0049771988   5.3308944e-06
     0.57900252      0.61785941   7.2436644e-05               0  -2.5085919e-06   -4.363235e-10               0    0.0021000046       781.79474    0.0049481068   5.3363423e-06
     0.59685126       0.6157318   7.0887924e-05               0  -2.4938912e-06  -4.2572571e-10               0    0.0020612803       779.49931    0.0049190927   5.3406378e-06
     0.61524836      0.61360916   6.9203769e-05               0  -2.4792497e-06   -4.144224e-10               0       0.0020204       777.21066    0.0048902491   5.3438625e-06
     0.63421066      0.61149211   6.7596973e-05               0  -2.4646848e-06  -4.0298312e-10               0    0.0019762341       774.93221     0.004861618   5.3459509e-06
     0.65375553      0.60938162   6.5823478e-05               0  -2.4502141e-06  -3.9087346e-10               0    0.0019340326       772.66605    0.0048332247   5.3469769e-06
     0.67390086      0.60728568   6.3779454e-05               0  -2.4358794e-06   -3.777229e-10               0    0.0018941211        770.4181    0.0048051416   5.3471964e-06
     0.69466511      0.60521193   6.1653648e-05               0  -2.4217189e-06  -3.6419856e-10               0     0.001852597       768.19449    0.0047774429   5.3468054e-06
     0.71606728      0.60316002    5.963463e-05               0  -2.4077444e-06  -3.5081929e-10               0    0.0018089848       765.99578     0.004750133   5.3458529e-06
     0.73812698      0.60113037   5.7512209e-05               0  -2.3939631e-06  -3.3735343e-10               0    0.0017678319       763.82166    0.0047232053   5.3444486e-06
     0.76086441      0.59912756   5.5344643e-05               0  -2.3803864e-06   -3.240861e-10               0    0.0017273751       761.67264    0.0046966635   5.3428966e-06
     0.78430038      0.59714938    5.342663e-05               0  -2.3670019e-06  -3.1180709e-10               0    0.0016837205        759.5457    0.0046704681    5.341219e-06
     0.80845637      0.59518901    5.167804e-05               0  -2.3537806e-06  -3.0044193e-10               0    0.0016398844       757.43549     0.004644551   5.3392661e-06
     0.83335448      0.59324583   4.9919074e-05               0  -2.3407136e-06  -2.8942864e-10               0    0.0015978066       755.34145    0.0046189037    5.336987e-06
     0.85901753      0.59132308   4.8198515e-05               0  -2.3278059e-06  -2.7880713e-10               0    0.0015544675       753.26697     0.004593566   5.3343488e-06
       0.885469      0.58941847   4.6638205e-05               0  -2.3150544e-06  -2.6862635e-10               0    0.0015086609       751.21183    0.0045685331   5.3312494e-06
     0.91273313      0.58753202   4.4985782e-05               0  -2.3024652e-06   -2.584134e-10               0    0.0014652945       749.17629    0.0045438065     5.32777e-06
     0.94083488      0.58567016   4.3280044e-05               0  -2.2900558e-06  -2.4828899e-10               0     0.001421945        747.1653    0.0045194439   5.3240324e-06
     0.96979998      0.58383102   4.1782717e-05               0  -2.2778216e-06  -2.3877386e-10               0    0.0013748813       745.17702    0.0044954208   5.3200178e-06
     0.99965496      0.58200984   4.0309684e-05               0  -2.2657465e-06  -2.2969395e-10               0    0.0013295593       743.20611     0.004471671   5.3157777e-06
      1.0304272       0.5802088   3.8837527e-05               0  -2.2538246e-06  -2.2098726e-10               0    0.0012849249         741.253    0.0044481978   5.3113905e-06
      1.0621447      0.57842543   3.7559021e-05               0  -2.2420453e-06   -2.128729e-10               0    0.0012365475       739.31658    0.0044249863   5.3067289e-06
      1.0948368      0.57665639   3.6283241e-05               0  -2.2303998e-06  -2.0501155e-10               0    0.0011892101       737.39508    0.0044020138    5.301743e-06
      1.1285332      0.57490606   3.4952244e-05               0  -2.2188971e-06  -1.9722304e-10               0    0.0011427143       735.49221    0.0043793231   5.2965354e-06
      1.1632648      0.57317492   3.3744059e-05               0  -2.2075419e-06  -1.8973843e-10               0    0.0010930217       733.60935    0.0043569289   5.2910711e-06
      1.1990635      0.57146098   3.2534383e-05               0  -2.1963315e-06  -1.8247682e-10               0    0.0010444293        731.7444    0.0043348045   5.2853887e-06
       1.235962      0.56976653   3.1329291e-05               0  -2.1852646e-06  -1.7548519e-10               0   0.00099612347       729.89767    0.0043129521   5.2795955e-06
      1.2739941      0.56808873   3.0276244e-05               0    -2.17433e-06  -1.6896956e-10               0   0.00094448067       728.06668    0.0042913406   5.2736163e-06
      1.3131947      0.56642442   2.9232593e-05               0  -2.1635154e-06  -1.6273525e-10               0   0.00089377197       726.24919    0.0042699423   5.2674176e-06
      1.3535996      0.56477584   2.8193803e-05               0  -2.1528232e-06  -1.5664057e-10               0   0.00084297889       724.44728    0.0042487804   5.2610481e-06
      1.3952458      0.56314329   2.7211292e-05               0  -2.1422576e-06  -1.5074003e-10               0    0.0007903178       722.66203    0.0042278663   5.2544954e-06
      1.4381715      0.56152707   2.6229508e-05               0  -2.1318179e-06   -1.450549e-10               0   0.00073803401       720.89355    0.0042071996   5.2477936e-06
       1.482416      0.55992624   2.5321621e-05               0  -2.1214982e-06  -1.3964199e-10               0   0.00068444815       719.14021    0.0041867599   5.2409553e-06
      1.5280198        0.558339   2.4441056e-05               0  -2.1112914e-06  -1.3447051e-10               0   0.00063100379       717.40011    0.0041665237   5.2339829e-06
      1.5750246      0.55676594   2.3586703e-05               0  -2.1011938e-06  -1.2951246e-10               0   0.00057707308       715.67384    0.0041464968   5.2268819e-06
      1.6234735      0.55520569   2.2789243e-05               0  -2.0912026e-06  -1.2476734e-10               0   0.00052170774       713.96092    0.0041266726   5.2196234e-06
      1.6734109      0.55365898   2.1989902e-05               0  -2.0813142e-06  -1.2020361e-10               0   0.00046764451       712.26216    0.0041070591   5.2122299e-06
      1.7248825      0.55212387   2.1252664e-05               0  -2.0715271e-06  -1.1590024e-10               0   0.00041281582       710.57531     0.004087629   5.2047289e-06
      1.7779355      0.55060285   2.0563724e-05               0  -2.0618126e-06  -1.1188364e-10               0   0.00036072564       708.90215    0.0040684021   5.1970386e-06
      1.8326183      0.54907502   1.9926811e-05               0  -2.0522156e-06  -1.0796632e-10               0   0.00030622581       707.22401    0.0040491636   5.1893139e-06
      1.8889812      0.54760828   1.9167625e-05               0  -2.0426144e-06  -1.4306778e-10               0   0.00027356655       705.60069     0.004030596   5.1814635e-06
      1.9470756      0.54601083   4.9990342e-05               0  -2.0330376e-06  -2.7266068e-10               0   0.00016256427       703.86262    0.0040107648   5.1729129e-06
      2.0069548      0.54461713   9.3812862e-05               0  -2.0227927e-06  -4.1403278e-10               0    0.0003592786       702.32815    0.0039932968   5.1610569e-06
