#      distance             U_x             U_y             U_z wallShearStr... wallShearStr... wallShearStr...               p           omega               k             nut
  5.5511169e-17      0.99945522   3.4942695e-22               0               0               0               0    0.0045019855       82.608644   1.4478248e-05   1.7503883e-07
   0.0021021021      0.99943914   3.4942695e-22               0               0               0               0    0.0045176107       81.764465   1.4318672e-05   1.7489778e-07
   0.0042042042      0.99942306   3.4942695e-22               0               0               0               0    0.0045332359       80.920286   1.4159095e-05   1.7475672e-07
   0.0063063063      0.99940698   3.4942695e-22               0               0               0               0    0.0045488611       80.076107   1.3999518e-05   1.7461567e-07
   0.0084084084       0.9993909   3.4942695e-22               0               0               0               0    0.0045644863       79.231928   1.3839942e-05   1.7447462e-07
    0.010510511      0.99937482   3.4942695e-22               0               0               0               0    0.0045801115       78.387749   1.3680365e-05   1.7433356e-07
    0.012612613      0.99935874   3.4942695e-22               0               0               0               0    0.0045957367        77.54357   1.3520789e-05   1.7419251e-07
    0.014714715      0.99934267   3.4942695e-22               0               0               0               0    0.0046113619       76.699391   1.3361212e-05   1.7405146e-07
    0.016816817      0.99932659   3.4942695e-22               0               0               0               0    0.0046269871       75.855212   1.3201635e-05   1.7391041e-07
    0.018918919      0.99931051   3.4942695e-22               0               0               0               0    0.0046426123       75.011033   1.3042059e-05   1.7376935e-07
    0.021021021      0.99929443   3.4942695e-22               0               0               0               0    0.0046582376       74.166854   1.2882482e-05    1.736283e-07
    0.023123123      0.99926773   5.7007944e-22               0               0               0               0    0.0046845734       73.498601   1.2757376e-05   1.7349598e-07
    0.025225225      0.99924068   5.7007944e-22               0               0               0               0    0.0047112596         72.8361   1.2633398e-05   1.7336394e-07
    0.027327327      0.99921363   5.7007944e-22               0               0               0               0    0.0047379457       72.173599    1.250942e-05    1.732319e-07
    0.029429429      0.99918658   5.7007944e-22               0               0               0               0    0.0047646318       71.511098   1.2385441e-05   1.7309986e-07
    0.031531532      0.99915954   5.7007944e-22               0               0               0               0    0.0047913179       70.848597   1.2261463e-05   1.7296782e-07
    0.033633634      0.99913249   5.7007944e-22               0               0               0               0     0.004818004       70.186096   1.2137485e-05   1.7283579e-07
    0.035735736      0.99910544   5.7007944e-22               0               0               0               0    0.0048446901       69.523595   1.2013506e-05   1.7270375e-07
    0.037837838      0.99907839   5.7007944e-22               0               0               0               0    0.0048713762       68.861094   1.1889528e-05   1.7257171e-07
     0.03993994      0.99905134   5.7007944e-22               0               0               0               0    0.0048980623       68.198594    1.176555e-05   1.7243967e-07
    0.042042042      0.99902429   5.7007944e-22               0               0               0               0    0.0049247484       67.536093   1.1641571e-05   1.7230764e-07
    0.044144144      0.99899725   5.7007944e-22               0               0               0               0    0.0049514346       66.873592   1.1517593e-05    1.721756e-07
    0.046246246       0.9989702   5.7007944e-22               0               0               0               0    0.0049781207       66.211091   1.1393614e-05   1.7204356e-07
    0.048348348      0.99892927   1.0234597e-21               0               0               0               0    0.0050172877       65.615033   1.1282552e-05   1.7191566e-07
     0.05045045      0.99888152   1.0234597e-21               0               0               0               0    0.0050625826       65.051596   1.1177832e-05   1.7178979e-07
    0.052552553      0.99883378   1.0234597e-21               0               0               0               0    0.0051078774        64.48816   1.1073111e-05   1.7166391e-07
    0.054654655      0.99878603   1.0234597e-21               0               0               0               0    0.0051531723       63.924724   1.0968391e-05   1.7153804e-07
    0.056756757      0.99873828   1.0234597e-21               0               0               0               0    0.0051984672       63.361288    1.086367e-05   1.7141217e-07
    0.058858859      0.99869054   1.0234597e-21               0               0               0               0     0.005243762       62.797851    1.075895e-05   1.7128629e-07
    0.060960961      0.99864279   1.0234597e-21               0               0               0               0    0.0052890569       62.234415   1.0654229e-05   1.7116042e-07
    0.063063063      0.99859504   1.0234597e-21               0               0               0               0    0.0053343518       61.670979   1.0549509e-05   1.7103455e-07
    0.065165165       0.9985473   1.0234597e-21               0               0               0               0    0.0053796467       61.107543   1.0444788e-05   1.7090867e-07
    0.067267267      0.99847389   1.5292654e-21               0               0               0               0    0.0054541786       60.594516   1.0349816e-05   1.7078644e-07
    0.069369369      0.99839613   1.5292654e-21               0               0               0               0    0.0055336737       60.090046   1.0256498e-05   1.7066483e-07
    0.071471471      0.99831836   1.5292654e-21               0               0               0               0    0.0056131688       59.585576   1.0163181e-05   1.7054322e-07
    0.073573574       0.9982406   1.5292654e-21               0               0               0               0    0.0056926639       59.081106   1.0069863e-05   1.7042161e-07
    0.075675676      0.99816283   1.5292654e-21               0               0               0               0     0.005772159       58.576637   9.9765459e-06       1.703e-07
    0.077777778      0.99808507   1.5292654e-21               0               0               0               0    0.0058516541       58.072167   9.8832285e-06   1.7017839e-07
     0.07987988      0.99795223   3.7811346e-21               0               0               0               0    0.0059678761       57.587557   9.7937391e-06   1.7005837e-07
    0.081981982      0.99777153   3.7811346e-21               0               0               0               0    0.0061160102       57.120204    9.707576e-06   1.6993975e-07
    0.084084084      0.99759084   3.7811346e-21               0               0               0               0    0.0062641444       56.652852   9.6214129e-06   1.6982112e-07
    0.086186186      0.99741014   3.7811346e-21               0               0               0               0    0.0064122786       56.185499   9.5352498e-06    1.697025e-07
    0.088288288      0.99722903   7.7097112e-21               0               0               0               0    0.0065612421       55.718261   9.4491085e-06   1.6958387e-07
     0.09039039      0.99695864   7.7097112e-21               0               0               0               0    0.0068902626       55.275932   9.3676953e-06    1.694665e-07
    0.092492492      0.99668825   7.7097112e-21               0               0               0               0    0.0072192832       54.833603   9.2862821e-06   1.6934913e-07
    0.094594595      0.99641786   7.7097112e-21               0               0               0               0    0.0075483037       54.391274   9.2048689e-06   1.6923175e-07
    0.096696697      0.83436586   9.1206139e-20               0  -0.00054358507  -5.7648691e-07               0    0.0079150649       61.565193   9.1589712e-06   3.3090093e-07
    0.098798799      0.62032723   9.1206139e-20               0   -0.0012618448  -1.3382211e-06               0    0.0082939536       71.186504    9.124486e-06   5.4455832e-07
      0.1009009      0.35479598   8.4420592e-20               0   -0.0021426483  -2.7106548e-06               0    0.0084180147       83.294284   9.1680616e-06   8.0792015e-07
       0.103003     0.020607883   8.4420592e-20               0   -0.0032401768  -4.8973545e-06               0    0.0082023057       98.717356   9.3157182e-06   1.1375546e-06
     0.10510511   1.0765781e-16   1.5593992e-19               0   -0.0032619506  -6.4416613e-06               0    0.0075265956       99.668428   9.6927838e-06   1.1498717e-06
     0.10720721   1.0618862e-16   1.9578484e-19               0    -0.003212644   -7.729295e-06               0    0.0068956904       99.668428   1.0333411e-05   1.1412236e-06
     0.10930931   1.0618862e-16   1.9578484e-19               0   -0.0031627674  -8.6983281e-06               0    0.0063762591       99.668428   1.1343192e-05   1.1324097e-06
     0.11141141   1.0462262e-16   2.3117652e-19               0   -0.0031134897  -9.6649942e-06               0    0.0060673056        191.9264    0.0004525504   1.1236009e-06
     0.11351351   1.0307149e-16   2.7593067e-19               0   -0.0030649109   -1.060262e-05               0    0.0058209891       314.57945    0.0010848932   1.1148736e-06
     0.11561562   1.0307149e-16   2.7593067e-19               0   -0.0030187916   -1.141647e-05               0    0.0056447857        480.7238    0.0021248818    1.106495e-06
     0.11771772    1.015754e-16   3.0368531e-19               0    -0.002974441  -1.1970637e-05               0    0.0054899262       608.83944    0.0031039387   1.0983826e-06
     0.11981982    1.015754e-16   3.0368531e-19               0   -0.0029318222  -1.2270535e-05               0    0.0053559657       699.71917    0.0040233342   1.0905307e-06
     0.12192192   1.0013692e-16   3.0691661e-19               0   -0.0028917657  -1.2264257e-05               0     0.005240139       764.60555    0.0047769021   1.0830708e-06
     0.12402402   1.0013692e-16   3.0691661e-19               0   -0.0028524676  -1.2167351e-05               0    0.0051296799         821.798    0.0054813856   1.0757269e-06
     0.12612613   9.8754684e-17   2.9967792e-19               0   -0.0028160692  -1.1915847e-05               0     0.005034674       857.85188    0.0059752725   1.0688333e-06
     0.12822823   9.7418383e-17    2.875697e-19               0   -0.0027800718  -1.1650084e-05               0    0.0049423633       891.54548    0.0064407519    1.062002e-06
     0.13033033   9.7418383e-17    2.875697e-19               0   -0.0027462091  -1.1313193e-05               0    0.0048647813        913.0507    0.0067554479   1.0555025e-06
     0.13243243   9.6117477e-17   2.7079703e-19               0   -0.0027128209  -1.0963304e-05               0    0.0047906306       932.27117    0.0070383451   1.0490744e-06
     0.13453453   9.6117477e-17   2.7079703e-19               0   -0.0026808989  -1.0573242e-05               0    0.0047270845       944.43022    0.0072229622   1.0428673e-06
     0.13663664    9.482966e-17   2.5131703e-19               0   -0.0026493968  -1.0184664e-05               0    0.0046652246       954.84223    0.0073815954   1.0367195e-06
     0.13873874    9.482966e-17   2.5131703e-19               0   -0.0026189342  -9.7997614e-06               0    0.0046075386       960.92944    0.0074759057   1.0307189e-06
     0.14084084   9.3545111e-17   2.3304072e-19               0   -0.0025888088  -9.4254485e-06               0    0.0045498077       965.94503    0.0075536982   1.0247641e-06
     0.14294294   9.3545111e-17   2.3304072e-19               0   -0.0025595907  -9.0796392e-06               0    0.0044919558       968.07625     0.007587031   1.0189327e-06
     0.14504505   9.2260238e-17   2.1601565e-19               0   -0.0025305961  -8.7404231e-06               0    0.0044340993       969.71503    0.0076126588   1.0131316e-06
     0.14714715   9.2260238e-17   2.1601565e-19               0   -0.0025025416  -8.4289397e-06               0    0.0043762235       969.28251    0.0076058776   1.0074579e-06
     0.14924925   9.0975564e-17   2.0002606e-19               0   -0.0024745441  -8.1188683e-06               0    0.0043184169       968.76923    0.0075978343    1.001792e-06
     0.15135135   9.0975564e-17   2.0002606e-19               0    -0.002447643  -7.8359669e-06               0    0.0042619418       966.70212    0.0075655075   9.9627794e-07
     0.15345345   9.0975564e-17   2.0002606e-19               0    -0.002420742  -7.5530656e-06               0    0.0042054668         964.635    0.0075331808   9.9076392e-07
     0.15555556   8.9693694e-17   1.8491912e-19               0    -0.002394835  -7.2896137e-06               0    0.0041507764       961.71995    0.0074878255   9.8539317e-07
     0.15765766   8.9693694e-17   1.8491912e-19               0   -0.0023691161  -7.0298416e-06               0    0.0040964237       958.64446    0.0074400053   9.8004952e-07
     0.15975976   8.8419312e-17   1.7044454e-19               0   -0.0023441061  -6.7774847e-06               0    0.0040436227       955.23937    0.0073873147   9.7481375e-07
     0.16186186   8.8419312e-17   1.7044454e-19               0   -0.0023196429  -6.5308474e-06               0    0.0039920185       951.58003    0.0073308676   9.6966119e-07
     0.16396396   8.7160524e-17   1.5582237e-19               0    -0.002295491  -6.2862421e-06               0     0.003941446       947.85912    0.0072735949   9.6455965e-07
     0.16606607   8.7160524e-17   1.5582237e-19               0   -0.0022724545  -6.0489146e-06               0    0.0038945688       943.91771    0.0072133657   9.5964085e-07
     0.16816817   8.7160524e-17   1.5582237e-19               0   -0.0022494181   -5.811587e-06               0    0.0038476916        939.9763    0.0071531365   9.5472206e-07
     0.17027027   8.5934024e-17   1.4132412e-19               0   -0.0022274873  -5.5914936e-06               0    0.0038051117       936.01789    0.0070931374   9.4998845e-07
     0.17237237   8.5934024e-17   1.4132412e-19               0   -0.0022058331  -5.3757116e-06               0     0.003763607       932.05521     0.007033196   9.4530117e-07
     0.17447447   8.4726558e-17   1.2836151e-19               0   -0.0021845954  -5.1669515e-06               0    0.0037226547       928.12909     0.006973996   9.4068585e-07
     0.17657658   8.4726558e-17   1.2836151e-19               0   -0.0021642972  -4.9740253e-06               0    0.0036829484       924.28541    0.0069164681   9.3623281e-07
     0.17867868   8.4726558e-17   1.2836151e-19               0   -0.0021439989   -4.781099e-06               0    0.0036432421       920.44172    0.0068589401   9.3177977e-07
     0.18078078   8.3557483e-17   1.1608666e-19               0   -0.0021248055  -4.5987593e-06               0     0.003603425       916.71049    0.0068035274   9.2752863e-07
     0.18288288   8.3557483e-17   1.1608666e-19               0   -0.0021060044  -4.4201785e-06               0    0.0035635685        913.0192    0.0067488656   9.2334919e-07
     0.18498498   8.2434012e-17   1.0430418e-19               0   -0.0020873389  -4.2427828e-06               0    0.0035239343       909.34389    0.0066944898   9.1919543e-07
     0.18708709   8.2434012e-17   1.0430418e-19               0   -0.0020700483     -4.0774e-06               0    0.0034865538       905.83055    0.0066430134   9.1530195e-07
     0.18918919   8.2434012e-17   1.0430418e-19               0   -0.0020527577  -3.9120171e-06               0    0.0034491734        902.3172     0.006591537   9.1140847e-07
     0.19129129   8.1362256e-17   9.3035687e-20               0   -0.0020360104  -3.7513304e-06               0    0.0034135085       898.87768    0.0065413238   9.0762131e-07
     0.19339339   8.1362256e-17   9.3035687e-20               0   -0.0020202282  -3.5989831e-06               0    0.0033808904       895.56925    0.0064933539   9.0402298e-07
      0.1954955   8.1362256e-17   9.3035687e-20               0   -0.0020044459  -3.4466358e-06               0    0.0033482723       892.26082    0.0064453841   9.0042465e-07
      0.1975976   8.0348445e-17   8.2342085e-20               0   -0.0019894811  -3.3015475e-06               0    0.0033183223       889.08771    0.0063996216   8.9699135e-07
      0.1996997   8.0348445e-17   8.2342085e-20               0   -0.0019751938  -3.1624743e-06               0    0.0032905834       886.02672    0.0063556883   8.9369479e-07
      0.2018018   8.0348445e-17   8.2342085e-20               0   -0.0019609064  -3.0234012e-06               0    0.0032628444       882.96573    0.0063117549   8.9039824e-07
      0.2039039   7.9397929e-17   7.2320818e-20               0   -0.0019475683  -2.8925327e-06               0    0.0032382533       880.08442    0.0062706505   8.8729892e-07
     0.20600601   7.9397929e-17   7.2320818e-20               0   -0.0019347479  -2.7661404e-06               0    0.0032153797       877.30115    0.0062310894   8.8430722e-07
     0.20810811   7.9397929e-17   7.2320818e-20               0   -0.0019219276  -2.6397481e-06               0     0.003192506       874.51787    0.0061915283   8.8131552e-07
     0.21021021   7.8515461e-17   6.2892662e-20               0   -0.0019100489  -2.5210849e-06               0    0.0031723804        871.9273    0.0061549179    8.785249e-07
     0.21231231   7.8515461e-17   6.2892662e-20               0   -0.0018986596  -2.4064373e-06               0    0.0031536826       869.43683    0.0061198405   8.7583875e-07
     0.21441441   7.8515461e-17   6.2892662e-20               0   -0.0018872702  -2.2917897e-06               0    0.0031349848       866.94637    0.0060847631    8.731526e-07
     0.21651652   7.7705462e-17   5.4074892e-20               0   -0.0018766731  -2.1842732e-06               0    0.0031174274       864.62632     0.006052236   8.7063978e-07
     0.21861862   7.7705462e-17   5.4074892e-20               0    -0.001866656  -2.0819771e-06               0    0.0031007049       862.43102    0.0060215759   8.6825385e-07
     0.22072072   7.7705462e-17   5.4074892e-20               0   -0.0018566389  -1.9796811e-06               0    0.0030839824       860.23573    0.0059909158   8.6586792e-07
     0.22282282   7.6969249e-17   4.6051879e-20               0   -0.0018471357  -1.8824778e-06               0    0.0030678147       858.15533    0.0059619424   8.6359677e-07
     0.22492492   7.6969249e-17   4.6051879e-20               0   -0.0018383972  -1.7928522e-06               0    0.0030524727       856.24586    0.0059354786   8.6149641e-07
     0.22702703   7.6969249e-17   4.6051879e-20               0   -0.0018296586  -1.7032266e-06               0    0.0030371306       854.33639    0.0059090148   8.5939605e-07
     0.22912913   7.6305232e-17    3.880377e-20               0   -0.0018210705  -1.6151317e-06               0    0.0030221103       852.46137    0.0058830486    8.573299e-07
     0.23123123   7.6305232e-17    3.880377e-20               0   -0.0018134981  -1.5373731e-06               0    0.0030092627       850.81893    0.0058604426   8.5549471e-07
     0.23333333   7.6305232e-17    3.880377e-20               0   -0.0018059257  -1.4596145e-06               0    0.0029964151        849.1765    0.0058378367   8.5365952e-07
