#      distance             U_x             U_y             U_z wallShearStr... wallShearStr... wallShearStr...               p           omega               k             nut
  5.5511169e-17      0.99945622   3.4899246e-22               0               0               0               0    0.0045012346       82.608663   1.4478251e-05   1.7503884e-07
   0.0021021021      0.99944017   3.4899246e-22               0               0               0               0    0.0045168398       81.764484   1.4318675e-05   1.7489779e-07
   0.0042042042      0.99942411   3.4899246e-22               0               0               0               0     0.004532445       80.920306   1.4159098e-05   1.7475673e-07
   0.0063063063      0.99940806   3.4899246e-22               0               0               0               0    0.0045480503       80.076127   1.3999522e-05   1.7461568e-07
   0.0084084084        0.999392   3.4899246e-22               0               0               0               0    0.0045636555       79.231949   1.3839945e-05   1.7447463e-07
    0.010510511      0.99937595   3.4899246e-22               0               0               0               0    0.0045792607        78.38777   1.3680369e-05   1.7433357e-07
    0.012612613       0.9993599   3.4899246e-22               0               0               0               0     0.004594866       77.543592   1.3520792e-05   1.7419252e-07
    0.014714715      0.99934384   3.4899246e-22               0               0               0               0    0.0046104712       76.699413   1.3361216e-05   1.7405147e-07
    0.016816817      0.99932779   3.4899246e-22               0               0               0               0    0.0046260764       75.855235   1.3201639e-05   1.7391042e-07
    0.018918919      0.99931173   3.4899246e-22               0               0               0               0    0.0046416817       75.011056   1.3042062e-05   1.7376936e-07
    0.021021021      0.99929568   3.4899246e-22               0               0               0               0    0.0046572869       74.166877   1.2882486e-05   1.7362831e-07
    0.023123123      0.99926901   5.6952966e-22               0               0               0               0    0.0046835921       73.498625   1.2757381e-05   1.7349599e-07
    0.025225225      0.99924198   5.6952966e-22               0               0               0               0    0.0047102472       72.836124   1.2633402e-05   1.7336395e-07
    0.027327327      0.99921496   5.6952966e-22               0               0               0               0    0.0047369023       72.173624   1.2509424e-05   1.7323191e-07
    0.029429429      0.99918794   5.6952966e-22               0               0               0               0    0.0047635574       71.511123   1.2385446e-05   1.7309987e-07
    0.031531532      0.99916092   5.6952966e-22               0               0               0               0    0.0047902125       70.848623   1.2261467e-05   1.7296783e-07
    0.033633634       0.9991339   5.6952966e-22               0               0               0               0    0.0048168676       70.186123   1.2137489e-05   1.7283579e-07
    0.035735736      0.99910688   5.6952966e-22               0               0               0               0    0.0048435227       69.523622   1.2013511e-05   1.7270376e-07
    0.037837838      0.99907986   5.6952966e-22               0               0               0               0    0.0048701778       68.861122   1.1889533e-05   1.7257172e-07
     0.03993994      0.99905284   5.6952966e-22               0               0               0               0    0.0048968329       68.198621   1.1765554e-05   1.7243968e-07
    0.042042042      0.99902582   5.6952966e-22               0               0               0               0     0.004923488       67.536121   1.1641576e-05   1.7230764e-07
    0.044144144      0.99899879   5.6952966e-22               0               0               0               0    0.0049501431       66.873621   1.1517598e-05    1.721756e-07
    0.046246246      0.99897177   5.6952966e-22               0               0               0               0    0.0049767982        66.21112   1.1393619e-05   1.7204357e-07
    0.048348348      0.99893087   1.0229173e-21               0               0               0               0     0.005015925       65.615063   1.1282557e-05   1.7191566e-07
     0.05045045      0.99888315   1.0229173e-21               0               0               0               0    0.0050611752       65.051627   1.1177837e-05   1.7178979e-07
    0.052552553      0.99883543   1.0229173e-21               0               0               0               0    0.0051064253       64.488191   1.1073116e-05   1.7166391e-07
    0.054654655      0.99878772   1.0229173e-21               0               0               0               0    0.0051516754       63.924755   1.0968396e-05   1.7153804e-07
    0.056756757         0.99874   1.0229173e-21               0               0               0               0    0.0051969256       63.361319   1.0863676e-05   1.7141217e-07
    0.058858859      0.99869228   1.0229173e-21               0               0               0               0    0.0052421757       62.797883   1.0758955e-05   1.7128629e-07
    0.060960961      0.99864456   1.0229173e-21               0               0               0               0    0.0052874258       62.234447   1.0654235e-05   1.7116042e-07
    0.063063063      0.99859684   1.0229173e-21               0               0               0               0     0.005332676       61.671011   1.0549514e-05   1.7103454e-07
    0.065165165      0.99854912   1.0229173e-21               0               0               0               0    0.0053779261       61.107575   1.0444794e-05   1.7090867e-07
    0.067267267      0.99847575   1.5286082e-21               0               0               0               0    0.0054523994       60.594549   1.0349821e-05   1.7078644e-07
    0.069369369      0.99839801   1.5286082e-21               0               0               0               0    0.0055318336       60.090079   1.0256504e-05   1.7066483e-07
    0.071471471      0.99832028   1.5286082e-21               0               0               0               0    0.0056112677        59.58561   1.0163187e-05   1.7054322e-07
    0.073573574      0.99824254   1.5286082e-21               0               0               0               0    0.0056907018       59.081141   1.0069869e-05   1.7042161e-07
    0.075675676      0.99816481   1.5286082e-21               0               0               0               0    0.0057701359       58.576671   9.9765518e-06   1.7029999e-07
    0.077777778      0.99808708   1.5286082e-21               0               0               0               0    0.0058495701       58.072202   9.8832343e-06   1.7017838e-07
     0.07987988      0.99795424   3.7822233e-21               0               0               0               0    0.0059657218       57.587592    9.793745e-06   1.7005837e-07
    0.081981982      0.99777352   3.7822233e-21               0               0               0               0    0.0061137777        57.12024   9.7075819e-06   1.6993974e-07
    0.084084084       0.9975928   3.7822233e-21               0               0               0               0    0.0062618336       56.652887   9.6214189e-06   1.6982112e-07
    0.086186186      0.99741208   3.7822233e-21               0               0               0               0    0.0064098895       56.185535   9.5352558e-06   1.6970249e-07
    0.088288288      0.99723095   7.7149219e-21               0               0               0               0    0.0065587746       55.718297   9.4491145e-06   1.6958387e-07
     0.09039039      0.99696029   7.7149219e-21               0               0               0               0    0.0068876958       55.275973   9.3677031e-06   1.6946652e-07
    0.092492492      0.99668964   7.7149219e-21               0               0               0               0    0.0072166169       54.833649   9.2862917e-06   1.6934916e-07
    0.094594595      0.99641899   7.7149219e-21               0               0               0               0    0.0075455381       54.391324   9.2048803e-06   1.6923181e-07
    0.096696697      0.83436664   9.1000023e-20               0   -0.0005435891  -5.7591658e-07               0    0.0079121672       61.565238   9.1589705e-06   3.3090169e-07
    0.098798799      0.62032765   9.1000023e-20               0   -0.0012618542  -1.3368972e-06               0    0.0082909132       71.186541   9.1244687e-06      5.4456e-07
      0.1009009      0.35479612   8.4335038e-20               0   -0.0021426629  -2.7084994e-06               0    0.0084148185       83.294307    9.168023e-06   8.0792272e-07
       0.103003     0.020607891   8.4335038e-20               0   -0.0032401964  -4.8942639e-06               0    0.0081989361       98.717358   9.3156521e-06    1.137558e-06
     0.10510511    1.076581e-16   1.5587063e-19               0   -0.0032619676  -6.4388441e-06               0    0.0075231199       99.668428   9.6927178e-06   1.1498746e-06
     0.10720721   1.0618892e-16   1.9572414e-19               0   -0.0032126592  -7.7267625e-06               0    0.0068921228       99.668428   1.0333345e-05   1.1412263e-06
     0.10930931   1.0618892e-16   1.9572414e-19               0   -0.0031627825  -8.6959786e-06               0    0.0063726144       99.668428   1.1343125e-05   1.1324123e-06
     0.11141141   1.0462291e-16    2.311205e-19               0   -0.0031135046  -9.6627199e-06               0    0.0060636105       191.92659   0.00045255209   1.1236035e-06
     0.11351351   1.0307178e-16   2.7587267e-19               0   -0.0030649257  -1.0600404e-05               0    0.0058172546       314.57989    0.0010848974   1.1148762e-06
     0.11561562   1.0307178e-16   2.7587267e-19               0   -0.0030188063  -1.1414339e-05               0    0.0056410338       480.72458    0.0021248902   1.1064976e-06
     0.11771772   1.0157569e-16   3.0363526e-19               0   -0.0029744555  -1.1968645e-05               0    0.0054861676       608.84046    0.0031039511   1.0983852e-06
     0.11981982   1.0157569e-16   3.0363526e-19               0   -0.0029318365  -1.2268736e-05               0    0.0053522109       699.72036    0.0040233504   1.0905333e-06
     0.12192192    1.001372e-16   3.0687465e-19               0   -0.0028917798  -1.2262627e-05               0    0.0052363996       764.60688    0.0047769216   1.0830734e-06
     0.12402402    1.001372e-16   3.0687465e-19               0   -0.0028524815  -1.2165884e-05               0    0.0051259593       821.79945    0.0054814082   1.0757295e-06
     0.12612613   9.8754962e-17    2.996421e-19               0   -0.0028160829  -1.1914506e-05               0    0.0050309808       857.85342    0.0059752975   1.0688359e-06
     0.12822823   9.7418658e-17   2.8753917e-19               0   -0.0027800853  -1.1648865e-05               0    0.0049386982       891.54711    0.0064407791   1.0620046e-06
     0.13033033   9.7418658e-17   2.8753917e-19               0   -0.0027462225  -1.1312076e-05               0    0.0048611474       913.05239    0.0067554769    1.055505e-06
     0.13243243   9.6117748e-17   2.7077099e-19               0   -0.0027128341  -1.0962285e-05               0    0.0047870278       932.27293    0.0070383756   1.0490769e-06
     0.13453453   9.6117748e-17   2.7077099e-19               0   -0.0026809119  -1.0572306e-05               0    0.0047235129       944.43203    0.0072229937   1.0428698e-06
     0.13663664   9.4829927e-17   2.5129478e-19               0   -0.0026494097  -1.0183807e-05               0    0.0046616831       954.84408    0.0073816278    1.036722e-06
     0.13873874   9.4829927e-17   2.5129478e-19               0    -0.002618947  -9.7989701e-06               0     0.004604025       960.93132    0.0074759388   1.0307214e-06
     0.14084084   9.3545375e-17    2.330215e-19               0   -0.0025888214  -9.4247195e-06               0    0.0045463202       965.94695    0.0075537319   1.0247666e-06
     0.14294294   9.3545375e-17    2.330215e-19               0   -0.0025596031  -9.0789631e-06               0    0.0044884902       968.07819    0.0075870651   1.0189352e-06
     0.14504505     9.22605e-17   2.1599912e-19               0   -0.0025306084  -8.7397983e-06               0    0.0044306544         969.717    0.0076126932   1.0131341e-06
     0.14714715     9.22605e-17   2.1599912e-19               0   -0.0025025538  -8.4283594e-06               0    0.0043727941       969.28449    0.0076059122   1.0074603e-06
     0.14924925   9.0975825e-17   2.0001186e-19               0   -0.0024745562  -8.1183323e-06               0    0.0043150026       968.77123    0.0075978692   1.0017944e-06
     0.15135135   9.0975825e-17   2.0001186e-19               0   -0.0024476551  -7.8354692e-06               0    0.0042585362       966.70413    0.0075655425   9.9628039e-07
     0.15345345   9.0975825e-17   2.0001186e-19               0    -0.002420754  -7.5526061e-06               0    0.0042020699       964.63703    0.0075332158   9.9076639e-07
     0.15555556   8.9693953e-17   1.8490708e-19               0   -0.0023948469  -7.2891888e-06               0    0.0041473829       961.72199    0.0074878606   9.8539564e-07
     0.15765766   8.9693953e-17   1.8490708e-19               0    -0.002369128  -7.0294506e-06               0    0.0040930326       958.64652    0.0074400404   9.8005199e-07
     0.15975976   8.8419571e-17   1.7043451e-19               0   -0.0023441179  -6.7771228e-06               0    0.0040402313       955.24143    0.0073873498   9.7481622e-07
     0.16186186   8.8419571e-17   1.7043451e-19               0   -0.0023196546  -6.5305106e-06               0    0.0039886247        951.5821    0.0073309026   9.6966366e-07
     0.16396396   8.7160783e-17   1.5581354e-19               0   -0.0022955027  -6.2859296e-06               0    0.0039380491       947.86121    0.0072736299   9.6456212e-07
     0.16606607   8.7160783e-17   1.5581354e-19               0   -0.0022724661  -6.0486235e-06               0     0.003891166        943.9198    0.0072134006   9.5964333e-07
     0.16816817   8.7160783e-17   1.5581354e-19               0   -0.0022494296  -5.8113174e-06               0    0.0038442828        939.9784    0.0071531713   9.5472453e-07
     0.17027027   8.5934283e-17   1.4131695e-19               0   -0.0022274987  -5.5912468e-06               0    0.0038016953       936.01999    0.0070931722   9.4999092e-07
     0.17237237   8.5934283e-17   1.4131695e-19               0   -0.0022058444  -5.3754879e-06               0    0.0037601824       932.05732    0.0070332306   9.4530365e-07
     0.17447447   8.4726814e-17   1.2835591e-19               0   -0.0021846068  -5.1667499e-06               0    0.0037192218       928.13121    0.0069740305   9.4068833e-07
     0.17657658   8.4726814e-17   1.2835591e-19               0   -0.0021643085  -4.9738437e-06               0    0.0036795065       924.28752    0.0069165024   9.3623529e-07
     0.17867868   8.4726814e-17   1.2835591e-19               0   -0.0021440102  -4.7809374e-06               0    0.0036397912       920.44384    0.0068589743   9.3178224e-07
     0.18078078   8.3557739e-17   1.1608244e-19               0   -0.0021248167  -4.5986153e-06               0    0.0035999652       916.71262    0.0068035614   9.2753111e-07
     0.18288288   8.3557739e-17   1.1608244e-19               0   -0.0021060155  -4.4200511e-06               0    0.0035600999       913.02133    0.0067488994   9.2335166e-07
     0.18498498   8.2434266e-17   1.0430116e-19               0   -0.0020873499  -4.2426717e-06               0    0.0035204571       909.34601    0.0066945235   9.1919789e-07
     0.18708709   8.2434266e-17   1.0430116e-19               0   -0.0020700592  -4.0773026e-06               0    0.0034830691       905.83267    0.0066430469   9.1530441e-07
     0.18918919   8.2434266e-17   1.0430116e-19               0   -0.0020527685  -3.9119335e-06               0     0.003445681       902.31932    0.0065915704   9.1141092e-07
     0.19129129   8.1362508e-17   9.3033675e-20               0   -0.0020360212  -3.7512593e-06               0    0.0034100093        898.8798     0.006541357   9.0762377e-07
     0.19339339   8.1362508e-17   9.3033675e-20               0   -0.0020202388  -3.5989227e-06               0    0.0033773855       895.57137     0.006493387   9.0402543e-07
      0.1954955   8.1362508e-17   9.3033675e-20               0   -0.0020044565  -3.4465861e-06               0    0.0033447618       892.26294     0.006445417    9.004271e-07
      0.1975976   8.0348693e-17   8.2340879e-20               0   -0.0019894917   -3.301507e-06               0    0.0033148075       889.08982    0.0063996543   8.9699378e-07
      0.1996997   8.0348693e-17   8.2340879e-20               0   -0.0019752042  -3.1624418e-06               0    0.0032870653       886.02883    0.0063557207   8.9369722e-07
      0.2018018   8.0348693e-17   8.2340879e-20               0   -0.0019609168  -3.0233766e-06               0    0.0032593232       882.96783    0.0063117872   8.9040066e-07
      0.2039039   7.9398176e-17   7.2320244e-20               0   -0.0019475786  -2.8925147e-06               0    0.0032347308       880.08652    0.0062706826   8.8730134e-07
     0.20600601   7.9398176e-17   7.2320244e-20               0   -0.0019347582  -2.7661281e-06               0    0.0032118568       877.30324    0.0062311213   8.8430963e-07
     0.20810811   7.9398176e-17   7.2320244e-20               0   -0.0019219378  -2.6397415e-06               0    0.0031889827       874.51997      0.00619156   8.8131792e-07
     0.21021021   7.8515705e-17   6.2892558e-20               0   -0.0019100591   -2.521083e-06               0    0.0031688586       871.92938    0.0061549493   8.7852729e-07
     0.21231231   7.8515705e-17   6.2892558e-20               0   -0.0018986697  -2.4064394e-06               0    0.0031501632       869.43891    0.0061198717   8.7584114e-07
     0.21441441   7.8515705e-17   6.2892558e-20               0   -0.0018872802  -2.2917958e-06               0    0.0031314678       866.94844    0.0060847941   8.7315499e-07
     0.21651652   7.7705704e-17   5.4075129e-20               0   -0.0018766831  -2.1842825e-06               0    0.0031139144       864.62839    0.0060522668   8.7064216e-07
     0.21861862   7.7705704e-17   5.4075129e-20               0   -0.0018666659  -2.0819891e-06               0    0.0030971969       862.43309    0.0060216065   8.6825622e-07
     0.22072072   7.7705704e-17   5.4075129e-20               0   -0.0018566487  -1.9796957e-06               0    0.0030804794       860.23779    0.0059909463   8.6587028e-07
     0.22282282   7.6969489e-17   4.6052335e-20               0   -0.0018471455  -1.8824946e-06               0    0.0030643177       858.15738    0.0059619727   8.6359913e-07
     0.22492492   7.6969489e-17   4.6052335e-20               0   -0.0018384069  -1.7928705e-06               0     0.003048983       856.24791    0.0059355087   8.6149876e-07
     0.22702703   7.6969489e-17   4.6052335e-20               0   -0.0018296683  -1.7032463e-06               0    0.0030336482       854.33844    0.0059090447    8.593984e-07
     0.22912913   7.6305469e-17   3.8804349e-20               0   -0.0018210802  -1.6151528e-06               0    0.0030186355       852.46341    0.0058830784   8.5733224e-07
     0.23123123   7.6305469e-17   3.8804349e-20               0   -0.0018135077  -1.5373947e-06               0    0.0030057969       850.82097    0.0058604723   8.5549704e-07
     0.23333333   7.6305469e-17   3.8804349e-20               0   -0.0018059353  -1.4596366e-06               0    0.0029929584       849.17853    0.0058378662   8.5366185e-07
