#      distance             U_x             U_y             U_z wallShearStr... wallShearStr... wallShearStr...               p           omega               k             nut
  5.5511169e-17      0.99945352   3.5007107e-22               0               0               0               0     0.004489667       82.608613   1.4478243e-05   1.7503884e-07
   0.0021021021       0.9994374   3.5007107e-22               0               0               0               0    0.0045053222       81.764433   1.4318666e-05   1.7489779e-07
   0.0042042042      0.99942129   3.5007107e-22               0               0               0               0    0.0045209773       80.920253   1.4159089e-05   1.7475673e-07
   0.0063063063      0.99940517   3.5007107e-22               0               0               0               0    0.0045366324       80.076074   1.3999513e-05   1.7461568e-07
   0.0084084084      0.99938906   3.5007107e-22               0               0               0               0    0.0045522876       79.231894   1.3839936e-05   1.7447463e-07
    0.010510511      0.99937294   3.5007107e-22               0               0               0               0    0.0045679427       78.387715   1.3680359e-05   1.7433357e-07
    0.012612613      0.99935683   3.5007107e-22               0               0               0               0    0.0045835978       77.543535   1.3520782e-05   1.7419252e-07
    0.014714715      0.99934071   3.5007107e-22               0               0               0               0     0.004599253       76.699355   1.3361206e-05   1.7405147e-07
    0.016816817       0.9993246   3.5007107e-22               0               0               0               0    0.0046149081       75.855176   1.3201629e-05   1.7391042e-07
    0.018918919      0.99930848   3.5007107e-22               0               0               0               0    0.0046305633       75.010996   1.3042052e-05   1.7376936e-07
    0.021021021      0.99929237   3.5007107e-22               0               0               0               0    0.0046462184       74.166816   1.2882475e-05   1.7362831e-07
    0.023123123      0.99926562   5.7086139e-22               0               0               0               0    0.0046725989       73.498563    1.275737e-05   1.7349599e-07
    0.025225225      0.99923853   5.7086139e-22               0               0               0               0    0.0046993301       72.836061   1.2633391e-05   1.7336395e-07
    0.027327327      0.99921145   5.7086139e-22               0               0               0               0    0.0047260612        72.17356   1.2509413e-05   1.7323191e-07
    0.029429429      0.99918436   5.7086139e-22               0               0               0               0    0.0047527924       71.511058   1.2385435e-05   1.7309987e-07
    0.031531532      0.99915727   5.7086139e-22               0               0               0               0    0.0047795236       70.848557   1.2261456e-05   1.7296783e-07
    0.033633634      0.99913018   5.7086139e-22               0               0               0               0    0.0048062548       70.186055   1.2137478e-05   1.7283579e-07
    0.035735736      0.99910309   5.7086139e-22               0               0               0               0     0.004832986       69.523554   1.2013499e-05   1.7270376e-07
    0.037837838        0.999076   5.7086139e-22               0               0               0               0    0.0048597171       68.861052   1.1889521e-05   1.7257172e-07
     0.03993994      0.99904891   5.7086139e-22               0               0               0               0    0.0048864483       68.198551   1.1765542e-05   1.7243968e-07
    0.042042042      0.99902182   5.7086139e-22               0               0               0               0    0.0049131795        67.53605   1.1641564e-05   1.7230764e-07
    0.044144144      0.99899473   5.7086139e-22               0               0               0               0    0.0049399107       66.873548   1.1517585e-05    1.721756e-07
    0.046246246      0.99896764   5.7086139e-22               0               0               0               0    0.0049666419       66.211047   1.1393607e-05   1.7204357e-07
    0.048348348      0.99892667   1.0242364e-21               0               0               0               0    0.0050058661       65.614988   1.1282545e-05   1.7191566e-07
     0.05045045      0.99887888   1.0242364e-21               0               0               0               0    0.0050512242       65.051551   1.1177824e-05   1.7178979e-07
    0.052552553      0.99883109   1.0242364e-21               0               0               0               0    0.0050965822       64.488114   1.1073104e-05   1.7166392e-07
    0.054654655      0.99878331   1.0242364e-21               0               0               0               0    0.0051419403       63.924678   1.0968383e-05   1.7153804e-07
    0.056756757      0.99873552   1.0242364e-21               0               0               0               0    0.0051872983       63.361241   1.0863662e-05   1.7141217e-07
    0.058858859      0.99868773   1.0242364e-21               0               0               0               0    0.0052326564       62.797804   1.0758942e-05   1.7128629e-07
    0.060960961      0.99863994   1.0242364e-21               0               0               0               0    0.0052780145       62.234367   1.0654221e-05   1.7116042e-07
    0.063063063      0.99859216   1.0242364e-21               0               0               0               0    0.0053233725        61.67093   1.0549501e-05   1.7103455e-07
    0.065165165      0.99854437   1.0242364e-21               0               0               0               0    0.0053687306       61.107494    1.044478e-05   1.7090867e-07
    0.067267267      0.99847092   1.5301893e-21               0               0               0               0    0.0054433439       60.594466   1.0349808e-05   1.7078644e-07
    0.069369369      0.99839311   1.5301893e-21               0               0               0               0    0.0055229233       60.089996    1.025649e-05   1.7066483e-07
    0.071471471       0.9983153   1.5301893e-21               0               0               0               0    0.0056025028       59.585526   1.0163173e-05   1.7054322e-07
    0.073573574      0.99823749   1.5301893e-21               0               0               0               0    0.0056820823       59.081056   1.0069855e-05   1.7042161e-07
    0.075675676      0.99815968   1.5301893e-21               0               0               0               0    0.0057616618       58.576586   9.9765378e-06       1.703e-07
    0.077777778      0.99808187   1.5301893e-21               0               0               0               0    0.0058412412       58.072115   9.8832203e-06   1.7017839e-07
     0.07987988        0.997949   3.7805236e-21               0               0               0               0    0.0059575601       57.587506   9.7937309e-06   1.7005838e-07
    0.081981982       0.9977683   3.7805236e-21               0               0               0               0     0.006105802       57.120153   9.7075678e-06   1.6993975e-07
    0.084084084      0.99758759   3.7805236e-21               0               0               0               0    0.0062540439         56.6528   9.6214047e-06   1.6982113e-07
    0.086186186      0.99740688   3.7805236e-21               0               0               0               0    0.0064022858       56.185447   9.5352416e-06    1.697025e-07
    0.088288288      0.99722576   7.7047719e-21               0               0               0               0    0.0065513571       55.718209   9.4491003e-06   1.6958388e-07
     0.09039039      0.99695538   7.7047719e-21               0               0               0               0    0.0068805136       55.275872   9.3676837e-06   1.6946647e-07
    0.092492492      0.99668499   7.7047719e-21               0               0               0               0    0.0072096701       54.833534   9.2862672e-06   1.6934906e-07
    0.094594595       0.9964146   7.7047719e-21               0               0               0               0    0.0075388266       54.391197   9.2048507e-06   1.6923165e-07
    0.096696697      0.83436311   9.1478752e-20               0  -0.00054358102   -5.770289e-07               0    0.0079057655       61.565122   9.1589546e-06   3.3090014e-07
    0.098798799      0.62032517   9.1478752e-20               0   -0.0012618354  -1.3394793e-06               0    0.0082848452       71.186444   9.1244727e-06   5.4455662e-07
      0.1009009      0.35479479   8.4502219e-20               0   -0.0021426327  -2.7127352e-06               0    0.0084091215       83.294246   9.1680562e-06   8.0791741e-07
       0.103003     0.020607814   8.4502219e-20               0   -0.0032401538  -4.9003987e-06               0    0.0081936598       98.717354    9.315727e-06   1.1375506e-06
     0.10510511   1.0765739e-16   1.5601125e-19               0    -0.003261928  -6.4444954e-06               0    0.0075181233       99.668428   9.6927974e-06   1.1498677e-06
     0.10720721    1.061882e-16   1.9584646e-19               0    -0.003212622  -7.7318798e-06               0     0.006887376       99.668428   1.0333429e-05   1.1412197e-06
     0.10930931    1.061882e-16   1.9584646e-19               0   -0.0031627454  -8.7007195e-06               0    0.0063680864       99.668428   1.1343215e-05   1.1324058e-06
     0.11141141    1.046222e-16   2.3123409e-19               0   -0.0031134679  -9.6673266e-06               0    0.0060592484       191.92617   0.00045254809    1.123597e-06
     0.11351351   1.0307107e-16   2.7599149e-19               0   -0.0030648893  -1.0604914e-05               0     0.005813037       314.57892    0.0010848875   1.1148697e-06
     0.11561562   1.0307107e-16   2.7599149e-19               0   -0.0030187701  -1.1418686e-05               0    0.0056369178       480.72289    0.0021248703   1.1064911e-06
     0.11771772   1.0157498e-16   3.0373761e-19               0   -0.0029744197  -1.1972711e-05               0    0.0054821327       608.83824    0.0031039216   1.0983787e-06
     0.11981982   1.0157498e-16   3.0373761e-19               0   -0.0029318011  -1.2272406e-05               0    0.0053482369       699.71776    0.0040233117   1.0905268e-06
     0.12192192    1.001365e-16   3.0696049e-19               0   -0.0028917448  -1.2265951e-05               0    0.0052324643       764.60399    0.0047768749   1.0830669e-06
     0.12402402    1.001365e-16   3.0696049e-19               0   -0.0028524469  -1.2168876e-05               0    0.0051220562       821.79629     0.005481354    1.075723e-06
     0.12612613   9.8754266e-17    2.997155e-19               0   -0.0028160486  -1.1917244e-05               0     0.005027093       857.85007    0.0059752375   1.0688294e-06
     0.12822823   9.7417967e-17   2.8760184e-19               0   -0.0027800513  -1.1651355e-05               0    0.0049348244       891.54356    0.0064407137   1.0619981e-06
     0.13033033   9.7417967e-17   2.8760184e-19               0   -0.0027461889  -1.1314358e-05               0    0.0048572812        913.0487    0.0067554073   1.0554986e-06
     0.13243243   9.6117062e-17   2.7082449e-19               0   -0.0027128008  -1.0964368e-05               0     0.004783169        932.2691    0.0070383022   1.0490705e-06
     0.13453453   9.6117062e-17   2.7082449e-19               0   -0.0026808789  -1.0574219e-05               0    0.0047196605        944.4281    0.0072229176   1.0428634e-06
     0.13663664   9.4829246e-17   2.5134055e-19               0   -0.0026493769  -1.0185561e-05               0    0.0046578386       954.84005    0.0073815493   1.0367156e-06
     0.13873874   9.4829246e-17   2.5134055e-19               0   -0.0026189145  -9.8005899e-06               0    0.0046001918       960.92722    0.0074758586    1.030715e-06
     0.14084084   9.3544696e-17   2.3306108e-19               0   -0.0025887892  -9.4262124e-06               0    0.0045425008       965.94278    0.0075536501   1.0247602e-06
     0.14294294   9.3544696e-17   2.3306108e-19               0   -0.0025595712  -9.0803481e-06               0    0.0044846912       968.07396    0.0075869821   1.0189288e-06
     0.14504505   9.2259823e-17    2.160332e-19               0   -0.0025305767  -8.7410785e-06               0    0.0044268776       969.71272    0.0076126092   1.0131277e-06
     0.14714715   9.2259823e-17    2.160332e-19               0   -0.0025025222  -8.4295483e-06               0    0.0043690477       969.28017    0.0076058275   1.0074539e-06
     0.14924925    9.097515e-17   2.0004115e-19               0   -0.0024745248  -8.1194304e-06               0    0.0043112871       968.76687    0.0075977838    1.001788e-06
     0.15135135    9.097515e-17   2.0004115e-19               0   -0.0024476238  -7.8364891e-06               0    0.0042548616       966.69974    0.0075654567   9.9627398e-07
     0.15345345    9.097515e-17   2.0004115e-19               0   -0.0024207229  -7.5535478e-06               0     0.004198436        964.6326    0.0075331297   9.9075997e-07
     0.15555556   8.9693278e-17   1.8493195e-19               0    -0.002394816  -7.2900599e-06               0    0.0041437978       961.71753    0.0074877742   9.8538922e-07
     0.15765766   8.9693278e-17   1.8493195e-19               0   -0.0023690972  -7.0302525e-06               0    0.0040894978       958.64204    0.0074399538   9.8004556e-07
     0.15975976   8.8418894e-17   1.7045526e-19               0   -0.0023440872  -6.7778653e-06               0    0.0040367506       955.23692    0.0073872632   9.7480978e-07
     0.16186186   8.8418894e-17   1.7045526e-19               0    -0.002319624  -6.5312014e-06               0    0.0039852011       951.57757    0.0073308159   9.6965721e-07
     0.16396396   8.7160107e-17   1.5583179e-19               0   -0.0022954722  -6.2865704e-06               0    0.0039346835       947.85666    0.0072735432   9.6455566e-07
     0.16606607   8.7160107e-17   1.5583179e-19               0   -0.0022724358  -6.0492206e-06               0     0.003887862       943.91524     0.007213314   9.5963685e-07
     0.16816817   8.7160107e-17   1.5583179e-19               0   -0.0022493994  -5.8118708e-06               0    0.0038410406       939.97382    0.0071530848   9.5471805e-07
     0.17027027   8.5933606e-17   1.4133185e-19               0   -0.0022274686  -5.5917546e-06               0    0.0037985165       936.01539    0.0070930858   9.4998443e-07
     0.17237237   8.5933606e-17   1.4133185e-19               0   -0.0022058145  -5.3759497e-06               0    0.0037570676       932.05271    0.0070331444   9.4529714e-07
     0.17447447   8.4726138e-17   1.2836768e-19               0    -0.002184577  -5.1671676e-06               0    0.0037161709       928.12659    0.0069739445   9.4068182e-07
     0.17657658   8.4726138e-17   1.2836768e-19               0   -0.0021642788  -4.9742216e-06               0    0.0036765194        924.2829    0.0069164166   9.3622877e-07
     0.17867868   8.4726138e-17   1.2836768e-19               0   -0.0021439806  -4.7812756e-06               0     0.003636868        920.4392    0.0068588888   9.3177572e-07
     0.18078078   8.3557063e-17   1.1609147e-19               0   -0.0021247873  -4.5989188e-06               0    0.0035971046       916.70798    0.0068034762   9.2752458e-07
     0.18288288   8.3557063e-17   1.1609147e-19               0   -0.0021059862  -4.4203218e-06               0    0.0035573013       913.01668    0.0067488145   9.2334513e-07
     0.18498498   8.2433592e-17   1.0430784e-19               0   -0.0020873208  -4.2429101e-06               0    0.0035177203       909.34136    0.0066944389   9.1919136e-07
     0.18708709   8.2433592e-17   1.0430784e-19               0   -0.0020700302  -4.0775143e-06               0    0.0034803908       905.82802    0.0066429626   9.1529788e-07
     0.18918919   8.2433592e-17   1.0430784e-19               0   -0.0020527397  -3.9121185e-06               0    0.0034430613       902.31467    0.0065914863    9.114044e-07
     0.19129129   8.1361837e-17   9.3038375e-20               0   -0.0020359925  -3.7514198e-06               0    0.0034074465       898.87515    0.0065412733   9.0761724e-07
     0.19339339   8.1361837e-17   9.3038375e-20               0   -0.0020202103  -3.5990623e-06               0    0.0033748766       895.56672    0.0064933035   9.0401891e-07
      0.1954955   8.1361837e-17   9.3038375e-20               0   -0.0020044281  -3.4467049e-06               0    0.0033423067       892.25829    0.0064453338   9.0042058e-07
      0.1975976   8.0348026e-17   8.2343993e-20               0   -0.0019894634  -3.3016077e-06               0    0.0033124033       889.08518    0.0063995715   8.9698728e-07
      0.1996997   8.0348026e-17   8.2343993e-20               0   -0.0019751761  -3.1625268e-06               0    0.0032847095       886.02419    0.0063556383   8.9369072e-07
      0.2018018   8.0348026e-17   8.2343993e-20               0   -0.0019608888  -3.0234459e-06               0    0.0032570157        882.9632    0.0063117052   8.9039417e-07
      0.2039039   7.9397512e-17   7.2322109e-20               0   -0.0019475507   -2.892571e-06               0    0.0032324678        880.0819     0.006270601   8.8729486e-07
     0.20600601   7.9397512e-17   7.2322109e-20               0   -0.0019347304  -2.7661729e-06               0    0.0032096361       877.29863    0.0062310401   8.8430316e-07
     0.20810811   7.9397512e-17   7.2322109e-20               0   -0.0019219102  -2.6397748e-06               0    0.0031868044       874.51536    0.0061914792   8.8131146e-07
     0.21021021   7.8515046e-17   6.2893485e-20               0   -0.0019100316   -2.521107e-06               0    0.0031667189       871.92478    0.0061548689   8.7852084e-07
     0.21231231   7.8515046e-17   6.2893485e-20               0   -0.0018986423  -2.4064554e-06               0      0.00314806       869.43432    0.0061197917    8.758347e-07
     0.21441441   7.8515046e-17   6.2893485e-20               0   -0.0018872531  -2.2918037e-06               0    0.0031294012       866.94386    0.0060847145   8.7314855e-07
     0.21651652   7.7705049e-17    5.407537e-20               0    -0.001876656   -2.184284e-06               0    0.0031118812       864.62382    0.0060521876   8.7063574e-07
     0.21861862   7.7705049e-17    5.407537e-20               0    -0.001866639  -2.0819852e-06               0    0.0030951948       862.42853    0.0060215278   8.6824981e-07
     0.22072072   7.7705049e-17    5.407537e-20               0   -0.0018566219  -1.9796864e-06               0    0.0030785085       860.23324    0.0059908679   8.6586389e-07
     0.22282282   7.6968839e-17   4.6052114e-20               0   -0.0018471188   -1.882481e-06               0     0.003062376       858.15284    0.0059618947   8.6359274e-07
     0.22492492   7.6968839e-17   4.6052114e-20               0   -0.0018383804  -1.7928538e-06               0    0.0030470676       856.24338    0.0059354311   8.6149239e-07
     0.22702703   7.6968839e-17   4.6052114e-20               0   -0.0018296419  -1.7032266e-06               0    0.0030317593       854.33391    0.0059089675   8.5939203e-07
     0.22912913   7.6304825e-17   3.8803866e-20               0   -0.0018210539  -1.6151303e-06               0    0.0030167724       852.45889    0.0058830015   8.5732588e-07
     0.23123123   7.6304825e-17   3.8803866e-20               0   -0.0018134816  -1.5373709e-06               0    0.0030039565       850.81646    0.0058603957    8.554907e-07
     0.23333333   7.6304825e-17   3.8803866e-20               0   -0.0018059092  -1.4596114e-06               0    0.0029911407       849.17403    0.0058377899   8.5365552e-07
