#      distance             U_x             U_y             U_z wallShearStr... wallShearStr... wallShearStr...               p           omega               k             nut
  5.5511169e-17      0.99945956   3.4841445e-22               0               0               0               0    0.0045628963       82.608717   1.4478258e-05   1.7503879e-07
   0.0021021021      0.99944357   3.4841445e-22               0               0               0               0     0.004578502       81.764539   1.4318681e-05   1.7489774e-07
   0.0042042042      0.99942757   3.4841445e-22               0               0               0               0    0.0045941077       80.920361   1.4159105e-05   1.7475668e-07
   0.0063063063      0.99941157   3.4841445e-22               0               0               0               0    0.0046097134       80.076183   1.3999528e-05   1.7461563e-07
   0.0084084084      0.99939557   3.4841445e-22               0               0               0               0    0.0046253191       79.232006   1.3839952e-05   1.7447458e-07
    0.010510511      0.99937957   3.4841445e-22               0               0               0               0    0.0046409248       78.387828   1.3680375e-05   1.7433352e-07
    0.012612613      0.99936357   3.4841445e-22               0               0               0               0    0.0046565305        77.54365   1.3520799e-05   1.7419247e-07
    0.014714715      0.99934757   3.4841445e-22               0               0               0               0    0.0046721362       76.699473   1.3361222e-05   1.7405141e-07
    0.016816817      0.99933157   3.4841445e-22               0               0               0               0    0.0046877419       75.855295   1.3201646e-05   1.7391036e-07
    0.018918919      0.99931558   3.4841445e-22               0               0               0               0    0.0047033476       75.011117   1.3042069e-05    1.737693e-07
    0.021021021      0.99929958   3.4841445e-22               0               0               0               0    0.0047189533       74.166939   1.2882493e-05   1.7362825e-07
    0.023123123      0.99927296    5.686696e-22               0               0               0               0    0.0047452325       73.498687   1.2757388e-05   1.7349592e-07
    0.025225225        0.999246    5.686696e-22               0               0               0               0    0.0047718607       72.836187   1.2633409e-05   1.7336389e-07
    0.027327327      0.99921903    5.686696e-22               0               0               0               0    0.0047984889       72.173687   1.2509431e-05   1.7323185e-07
    0.029429429      0.99919207    5.686696e-22               0               0               0               0    0.0048251171       71.511187   1.2385453e-05   1.7309981e-07
    0.031531532      0.99916511    5.686696e-22               0               0               0               0    0.0048517453       70.848686   1.2261474e-05   1.7296777e-07
    0.033633634      0.99913814    5.686696e-22               0               0               0               0    0.0048783735       70.186186   1.2137496e-05   1.7283573e-07
    0.035735736      0.99911118    5.686696e-22               0               0               0               0    0.0049050017       69.523686   1.2013518e-05   1.7270369e-07
    0.037837838      0.99908422    5.686696e-22               0               0               0               0    0.0049316299       68.861186    1.188954e-05   1.7257165e-07
     0.03993994      0.99905725    5.686696e-22               0               0               0               0    0.0049582581       68.198686   1.1765561e-05   1.7243961e-07
    0.042042042      0.99903029    5.686696e-22               0               0               0               0    0.0049848863       67.536186   1.1641583e-05   1.7230757e-07
    0.044144144      0.99900333    5.686696e-22               0               0               0               0    0.0050115146       66.873686   1.1517605e-05   1.7217554e-07
    0.046246246      0.99897636    5.686696e-22               0               0               0               0    0.0050381428       66.211186   1.1393626e-05    1.720435e-07
    0.048348348      0.99893552   1.0223077e-21               0               0               0               0    0.0050772066       65.615128   1.1282564e-05   1.7191559e-07
     0.05045045      0.99888786   1.0223077e-21               0               0               0               0    0.0051223761       65.051691   1.1177844e-05   1.7178972e-07
    0.052552553      0.99884019   1.0223077e-21               0               0               0               0    0.0051675456       64.488255   1.1073123e-05   1.7166384e-07
    0.054654655      0.99879253   1.0223077e-21               0               0               0               0    0.0052127151       63.924819   1.0968403e-05   1.7153797e-07
    0.056756757      0.99874487   1.0223077e-21               0               0               0               0    0.0052578846       63.361383   1.0863682e-05   1.7141209e-07
    0.058858859      0.99869721   1.0223077e-21               0               0               0               0    0.0053030541       62.797946   1.0758961e-05   1.7128622e-07
    0.060960961      0.99864955   1.0223077e-21               0               0               0               0    0.0053482235        62.23451   1.0654241e-05   1.7116034e-07
    0.063063063      0.99860188   1.0223077e-21               0               0               0               0     0.005393393       61.671074    1.054952e-05   1.7103447e-07
    0.065165165      0.99855422   1.0223077e-21               0               0               0               0    0.0054385625       61.107638     1.04448e-05   1.7090859e-07
    0.067267267      0.99848091   1.5264869e-21               0               0               0               0      0.00551288        60.59461   1.0349827e-05   1.7078636e-07
    0.069369369      0.99840325   1.5264869e-21               0               0               0               0    0.0055921456       60.090139    1.025651e-05   1.7066475e-07
    0.071471471      0.99832559   1.5264869e-21               0               0               0               0    0.0056714111       59.585669   1.0163192e-05   1.7054314e-07
    0.073573574      0.99824793   1.5264869e-21               0               0               0               0    0.0057506766       59.081198   1.0069874e-05   1.7042153e-07
    0.075675676      0.99817026   1.5264869e-21               0               0               0               0    0.0058299421       58.576727   9.9765565e-06   1.7029992e-07
    0.077777778       0.9980926   1.5264869e-21               0               0               0               0    0.0059092076       58.072257   9.8832389e-06    1.701783e-07
     0.07987988      0.99795976   3.7832991e-21               0               0               0               0    0.0060251216       57.587646   9.7937493e-06   1.7005829e-07
    0.081981982      0.99777899   3.7832991e-21               0               0               0               0    0.0061728795       57.120291   9.7075859e-06   1.6993967e-07
    0.084084084      0.99759821   3.7832991e-21               0               0               0               0    0.0063206374       56.652936   9.6214226e-06   1.6982104e-07
    0.086186186      0.99741743   3.7832991e-21               0               0               0               0    0.0064683954       56.185582   9.5352593e-06   1.6970242e-07
    0.088288288      0.99723624   7.7179004e-21               0               0               0               0    0.0066169817       55.718342   9.4491179e-06    1.695838e-07
     0.09039039      0.99696648   7.7179004e-21               0               0               0               0     0.006945416       55.276085   9.3677335e-06   1.6946674e-07
    0.092492492      0.99669671   7.7179004e-21               0               0               0               0    0.0072738504       54.833829   9.2863492e-06   1.6934967e-07
    0.094594595      0.99642694   7.7179004e-21               0               0               0               0    0.0076022848       54.391572   9.2049649e-06    1.692326e-07
    0.096696697      0.83437404   8.9258564e-20               0  -0.00054359056  -5.7401254e-07               0    0.0079682213       61.565496   9.1591024e-06   3.3090278e-07
    0.098798799      0.62033402   8.9258564e-20               0   -0.0012618576  -1.3324773e-06               0    0.0083462087        71.18679   9.1246544e-06   5.4456138e-07
      0.1009009      0.35480025   8.4047599e-20               0   -0.0021426722  -2.7013339e-06               0    0.0084691782       83.294481   9.1682446e-06   8.0792484e-07
       0.103003     0.020608131   8.4047599e-20               0   -0.0032402171  -4.8840463e-06               0    0.0082521239       98.717368   9.3158856e-06   1.1375614e-06
     0.10510511   1.0765874e-16   1.5564645e-19               0   -0.0032619968  -6.4298718e-06               0    0.0075751941       99.668428   9.6929306e-06   1.1498797e-06
     0.10720721   1.0618958e-16    1.955484e-19               0   -0.0032126935  -7.7190721e-06               0    0.0069431112       99.668428   1.0333536e-05   1.1412323e-06
     0.10930931   1.0618958e-16    1.955484e-19               0    -0.003162817  -8.6892049e-06               0    0.0064225527       99.668428   1.1343294e-05   1.1324184e-06
     0.11141141   1.0462358e-16   2.3096348e-19               0    -0.003113539  -9.6563231e-06               0    0.0061126158       191.92625   0.00045255379   1.1236097e-06
     0.11351351   1.0307244e-16   2.7571397e-19               0   -0.0030649599  -1.0594275e-05               0    0.0058653809        314.5791    0.0010849013   1.1148824e-06
     0.11561562   1.0307244e-16   2.7571397e-19               0     -0.00301884  -1.1408523e-05               0     0.005688402       480.72317    0.0021248976   1.1065038e-06
     0.11771772   1.0157634e-16   3.0350149e-19               0   -0.0029744886  -1.1963265e-05               0    0.0055328554       608.83858    0.0031039619   1.0983913e-06
     0.11981982   1.0157634e-16   3.0350149e-19               0   -0.0029318689   -1.226391e-05               0    0.0053982942       699.71813    0.0040233644   1.0905393e-06
     0.12192192   1.0013784e-16   3.0676234e-19               0   -0.0028918115  -1.2258258e-05               0    0.0052819854       764.60439    0.0047769384   1.0830793e-06
     0.12402402   1.0013784e-16   3.0676234e-19               0   -0.0028525125  -1.2161944e-05               0    0.0051710792       821.79672    0.0054814277   1.0757354e-06
     0.12612613    9.875558e-17   2.9954581e-19               0   -0.0028161132  -1.1910889e-05               0    0.0050757561       857.85052    0.0059753189   1.0688417e-06
     0.12822823   9.7419255e-17   2.8745608e-19               0   -0.0027801149   -1.164556e-05               0    0.0049831449       891.54403    0.0064408025   1.0620103e-06
     0.13033033   9.7419255e-17   2.8745608e-19               0   -0.0027462513  -1.1309026e-05               0    0.0049053505       913.04917    0.0067555014   1.0555106e-06
     0.13243243    9.611832e-17   2.7069874e-19               0   -0.0027128622  -1.0959475e-05               0    0.0048310062       932.26957    0.0070384011   1.0490824e-06
     0.13453453    9.611832e-17   2.7069874e-19               0   -0.0026809392   -1.056969e-05               0     0.004767325       944.42855    0.0072230198   1.0428751e-06
     0.13663664    9.483047e-17   2.5123078e-19               0   -0.0026494361   -1.018137e-05               0    0.0047053434       954.84049    0.0073816544   1.0367273e-06
     0.13873874    9.483047e-17   2.5123078e-19               0   -0.0026189726  -9.7966777e-06               0    0.0046475694       960.92763    0.0074759655   1.0307265e-06
     0.14084084    9.354589e-17   2.3296389e-19               0   -0.0025888463  -9.4225631e-06               0    0.0045897547       965.94315    0.0075537585   1.0247715e-06
     0.14294294    9.354589e-17   2.3296389e-19               0   -0.0025596273  -9.0769206e-06               0    0.0045318302       968.07429    0.0075870913   1.0189401e-06
     0.14504505   9.2260984e-17   2.1594707e-19               0   -0.0025306318  -8.7378646e-06               0    0.0044739007       969.71298     0.007612719   1.0131388e-06
     0.14714715   9.2260984e-17   2.1594707e-19               0   -0.0025025764  -8.4265133e-06               0    0.0044159503       969.28036    0.0076059371   1.0074649e-06
     0.14924925    9.097628e-17   1.9996375e-19               0    -0.002474578  -8.1165733e-06               0    0.0043580681       968.76698    0.0075978933   1.0017988e-06
     0.15135135    9.097628e-17   1.9996375e-19               0   -0.0024476762  -7.8337891e-06               0    0.0043014983       966.69975    0.0075655655   9.9628472e-07
     0.15345345    9.097628e-17   1.9996375e-19               0   -0.0024207744  -7.5510049e-06               0    0.0042449286       964.63252    0.0075332378    9.907706e-07
     0.15555556   8.9694381e-17   1.8486396e-19               0   -0.0023948667  -7.2876634e-06               0    0.0041901171       961.71735    0.0074878814   9.8539973e-07
     0.15765766   8.9694381e-17   1.8486396e-19               0    -0.002369147  -7.0280005e-06               0    0.0041356383       958.64175      0.00744006   9.8005597e-07
     0.15975976   8.8419968e-17   1.7039529e-19               0   -0.0023441363  -6.7757359e-06               0     0.004082691       955.23653    0.0073873681   9.7482009e-07
     0.16186186   8.8419968e-17   1.7039529e-19               0   -0.0023196723  -6.5291777e-06               0    0.0040309252       951.57706    0.0073309195   9.6966741e-07
     0.16396396   8.7161152e-17   1.5577695e-19               0   -0.0022955198  -6.2846508e-06               0    0.0039801829       947.85602    0.0072736454   9.6456576e-07
     0.16606607   8.7161152e-17   1.5577695e-19               0   -0.0022724826  -6.0473988e-06               0    0.0039331066       943.91448    0.0072134146   9.5964685e-07
     0.16816817   8.7161152e-17   1.5577695e-19               0   -0.0022494455  -5.8101468e-06               0    0.0038860303       939.97293    0.0071531839   9.5472794e-07
     0.17027027   8.5934622e-17   1.4128464e-19               0    -0.002227514  -5.5901358e-06               0    0.0038432239       936.01437    0.0070931833   9.4999422e-07
     0.17237237   8.5934622e-17   1.4128464e-19               0   -0.0022058591  -5.3744379e-06               0    0.0038014856       932.05156    0.0070332402   9.4530683e-07
     0.17447447   8.4727121e-17   1.2832759e-19               0   -0.0021846208   -5.165758e-06               0    0.0037602907       928.12531    0.0069740386    9.406914e-07
     0.17657658   8.4727121e-17   1.2832759e-19               0   -0.0021643219  -4.9729033e-06               0    0.0037203209       924.28149     0.006916509   9.3623824e-07
     0.17867868   8.4727121e-17   1.2832759e-19               0    -0.002144023  -4.7800486e-06               0    0.0036803512       920.43766    0.0068589794   9.3178508e-07
     0.18078078   8.3558014e-17   1.1605749e-19               0    -0.002124829  -4.5977723e-06               0    0.0036402528        916.7063     0.006803565   9.2753384e-07
     0.18288288   8.3558014e-17   1.1605749e-19               0   -0.0021060273   -4.419252e-06               0    0.0036001087       913.01488    0.0067489015   9.2335429e-07
     0.18498498   8.2434515e-17   1.0427946e-19               0   -0.0020873612  -4.2419161e-06               0    0.0035601854       909.33943    0.0066945241   9.1920042e-07
     0.18708709   8.2434515e-17   1.0427946e-19               0   -0.0020700701  -4.0765868e-06               0    0.0035225006       905.82596    0.0066430461   9.1530685e-07
     0.18918919   8.2434515e-17   1.0427946e-19               0    -0.002052779  -3.9112574e-06               0    0.0034848158       902.31249    0.0065915681   9.1141328e-07
     0.19129129   8.1362734e-17   9.3015039e-20               0   -0.0020360313  -3.7506214e-06               0    0.0034488434       898.87285    0.0065413534   9.0762605e-07
     0.19339339   8.1362734e-17   9.3015039e-20               0   -0.0020202486  -3.5983204e-06               0     0.003415912       895.56433    0.0064933821   9.0402765e-07
      0.1954955   8.1362734e-17   9.3015039e-20               0   -0.0020044659  -3.4460193e-06               0    0.0033829806        892.2558    0.0064454108   9.0042924e-07
      0.1975976   8.0348903e-17   8.2325115e-20               0   -0.0019895008  -3.3009742e-06               0    0.0033527165        889.0826    0.0063996471   8.9699588e-07
      0.1996997   8.0348903e-17   8.2325115e-20               0   -0.0019752131  -3.1619417e-06               0    0.0033246629       886.02153    0.0063557126   8.9369927e-07
      0.2018018   8.0348903e-17   8.2325115e-20               0   -0.0019609254  -3.0229092e-06               0    0.0032966092       882.96047    0.0063117781   8.9040266e-07
      0.2039039   7.9398372e-17   7.2307348e-20               0    -0.001947587  -2.8920787e-06               0    0.0032717072        880.0791    0.0062706727    8.873033e-07
     0.20600601   7.9398372e-17   7.2307348e-20               0   -0.0019347664  -2.7657226e-06               0    0.0032485248       877.29578    0.0062311107   8.8431156e-07
     0.20810811   7.9398372e-17   7.2307348e-20               0   -0.0019219459  -2.6393665e-06               0    0.0032253423       874.51246    0.0061915487   8.8131981e-07
     0.21021021   7.8515894e-17   6.2882394e-20               0   -0.0019100671  -2.5207371e-06               0    0.0032049154       871.92184    0.0061549376   8.7852917e-07
     0.21231231   7.8515894e-17   6.2882394e-20               0   -0.0018986775   -2.406122e-06               0    0.0031859203       869.43135    0.0061198596     8.75843e-07
     0.21441441   7.8515894e-17   6.2882394e-20               0    -0.001887288  -2.2915069e-06               0    0.0031669251       866.94086    0.0060847816   8.7315682e-07
     0.21651652   7.7705887e-17   5.4067678e-20               0   -0.0018766908  -2.1840208e-06               0    0.0031490795        864.6208     0.006052254   8.7064398e-07
     0.21861862   7.7705887e-17   5.4067678e-20               0   -0.0018666735  -2.0817537e-06               0    0.0031320755       862.42549    0.0060215935   8.6825803e-07
     0.22072072   7.7705887e-17   5.4067678e-20               0   -0.0018566563  -1.9794865e-06               0    0.0031150716       860.23019     0.005990933   8.6587208e-07
     0.22282282   7.6969668e-17   4.6047398e-20               0    -0.001847153  -1.8823097e-06               0      0.00309863       858.14978    0.0059619593   8.6360092e-07
     0.22492492   7.6969668e-17   4.6047398e-20               0   -0.0018384143  -1.7927068e-06               0    0.0030830252       856.24031    0.0059354952   8.6150055e-07
     0.22702703   7.6969668e-17   4.6047398e-20               0   -0.0018296757   -1.703104e-06               0    0.0030674204       854.33085    0.0059090312   8.5940018e-07
     0.22912913   7.6305647e-17   3.8801301e-20               0   -0.0018210875  -1.6150314e-06               0    0.0030521399       852.45582    0.0058830647   8.5733401e-07
     0.23123123   7.6305647e-17   3.8801301e-20               0    -0.001813515   -1.537292e-06               0    0.0030390493       850.81339    0.0058604586    8.554988e-07
     0.23333333   7.6305647e-17   3.8801301e-20               0   -0.0018059425  -1.4595526e-06               0    0.0030259587       849.17096    0.0058378524    8.536636e-07
