#      distance             U_x             U_y             U_z wallShearStr... wallShearStr... wallShearStr...               p           omega               k             nut
  5.5511169e-17      0.99945844   3.4900909e-22               0               0               0               0    0.0045526065       82.608692   1.4478253e-05   1.7503879e-07
   0.0021021021      0.99944241   3.4900909e-22               0               0               0               0    0.0045682515       81.764514   1.4318676e-05   1.7489774e-07
   0.0042042042      0.99942639   3.4900909e-22               0               0               0               0    0.0045838966       80.920336     1.41591e-05   1.7475668e-07
   0.0063063063      0.99941036   3.4900909e-22               0               0               0               0    0.0045995416       80.076158   1.3999523e-05   1.7461563e-07
   0.0084084084      0.99939434   3.4900909e-22               0               0               0               0    0.0046151867        79.23198   1.3839947e-05   1.7447458e-07
    0.010510511      0.99937831   3.4900909e-22               0               0               0               0    0.0046308317       78.387802    1.368037e-05   1.7433352e-07
    0.012612613      0.99936228   3.4900909e-22               0               0               0               0    0.0046464767       77.543623   1.3520794e-05   1.7419247e-07
    0.014714715      0.99934626   3.4900909e-22               0               0               0               0    0.0046621218       76.699445   1.3361217e-05   1.7405141e-07
    0.016816817      0.99933023   3.4900909e-22               0               0               0               0    0.0046777668       75.855267   1.3201641e-05   1.7391036e-07
    0.018918919       0.9993142   3.4900909e-22               0               0               0               0    0.0046934119       75.011089   1.3042064e-05    1.737693e-07
    0.021021021      0.99929818   3.4900909e-22               0               0               0               0    0.0047090569       74.166911   1.2882487e-05   1.7362825e-07
    0.023123123      0.99927153   5.6942624e-22               0               0               0               0    0.0047353889       73.498658   1.2757382e-05   1.7349592e-07
    0.025225225      0.99924453   5.6942624e-22               0               0               0               0    0.0047620704       72.836157   1.2633403e-05   1.7336388e-07
    0.027327327      0.99921753   5.6942624e-22               0               0               0               0    0.0047887519       72.173657   1.2509425e-05   1.7323184e-07
    0.029429429      0.99919054   5.6942624e-22               0               0               0               0    0.0048154334       71.511156   1.2385447e-05    1.730998e-07
    0.031531532      0.99916354   5.6942624e-22               0               0               0               0    0.0048421149       70.848655   1.2261468e-05   1.7296776e-07
    0.033633634      0.99913654   5.6942624e-22               0               0               0               0    0.0048687964       70.186155    1.213749e-05   1.7283573e-07
    0.035735736      0.99910954   5.6942624e-22               0               0               0               0    0.0048954778       69.523654   1.2013511e-05   1.7270369e-07
    0.037837838      0.99908255   5.6942624e-22               0               0               0               0    0.0049221593       68.861154   1.1889533e-05   1.7257165e-07
     0.03993994      0.99905555   5.6942624e-22               0               0               0               0    0.0049488408       68.198653   1.1765555e-05   1.7243961e-07
    0.042042042      0.99902855   5.6942624e-22               0               0               0               0    0.0049755223       67.536153   1.1641576e-05   1.7230757e-07
    0.044144144      0.99900155   5.6942624e-22               0               0               0               0    0.0050022038       66.873652   1.1517598e-05   1.7217553e-07
    0.046246246      0.99897456   5.6942624e-22               0               0               0               0    0.0050288853       66.211151   1.1393619e-05   1.7204349e-07
    0.048348348      0.99893367   1.0232384e-21               0               0               0               0    0.0050680097       65.615093   1.1282557e-05   1.7191558e-07
     0.05045045      0.99888597   1.0232384e-21               0               0               0               0    0.0051132433       65.051656   1.1177837e-05   1.7178971e-07
    0.052552553      0.99883827   1.0232384e-21               0               0               0               0    0.0051584769       64.488219   1.1073116e-05   1.7166383e-07
    0.054654655      0.99879057   1.0232384e-21               0               0               0               0    0.0052037106       63.924783   1.0968395e-05   1.7153796e-07
    0.056756757      0.99874287   1.0232384e-21               0               0               0               0    0.0052489442       63.361346   1.0863674e-05   1.7141208e-07
    0.058858859      0.99869517   1.0232384e-21               0               0               0               0    0.0052941778       62.797909   1.0758954e-05    1.712862e-07
    0.060960961      0.99864747   1.0232384e-21               0               0               0               0    0.0053394114       62.234472   1.0654233e-05   1.7116033e-07
    0.063063063      0.99859977   1.0232384e-21               0               0               0               0    0.0053846451       61.671035   1.0549512e-05   1.7103445e-07
    0.065165165      0.99855207   1.0232384e-21               0               0               0               0    0.0054298787       61.107599   1.0444792e-05   1.7090858e-07
    0.067267267      0.99847873   1.5270754e-21               0               0               0               0    0.0055042643        60.59457   1.0349819e-05   1.7078635e-07
    0.069369369      0.99840103   1.5270754e-21               0               0               0               0    0.0055835985       60.090099   1.0256501e-05   1.7066474e-07
    0.071471471      0.99832334   1.5270754e-21               0               0               0               0    0.0056629328       59.585628   1.0163184e-05   1.7054312e-07
    0.073573574      0.99824564   1.5270754e-21               0               0               0               0    0.0057422671       59.081156   1.0069866e-05   1.7042151e-07
    0.075675676      0.99816795   1.5270754e-21               0               0               0               0    0.0058216013       58.576685   9.9765483e-06    1.702999e-07
    0.077777778      0.99809025   1.5270754e-21               0               0               0               0    0.0059009356       58.072214   9.8832305e-06   1.7017829e-07
     0.07987988      0.99795736   3.7853648e-21               0               0               0               0    0.0060169145       57.587602   9.7937409e-06   1.7005828e-07
    0.081981982      0.99777651   3.7853648e-21               0               0               0               0    0.0061647341       57.120246   9.7075774e-06   1.6993965e-07
    0.084084084      0.99759566   3.7853648e-21               0               0               0               0    0.0063125537       56.652891    9.621414e-06   1.6982102e-07
    0.086186186      0.99741481   3.7853648e-21               0               0               0               0    0.0064603733       56.185535   9.5352505e-06    1.697024e-07
    0.088288288      0.99723355   7.7213261e-21               0               0               0               0    0.0066090212       55.718295    9.449109e-06   1.6958378e-07
     0.09039039      0.99696386   7.7213261e-21               0               0               0               0    0.0069374915       55.276056   9.3677317e-06   1.6946679e-07
    0.092492492      0.99669417   7.7213261e-21               0               0               0               0    0.0072659618       54.833817   9.2863543e-06    1.693498e-07
    0.094594595      0.99642448   7.7213261e-21               0               0               0               0    0.0075944322       54.391578   9.2049769e-06   1.6923281e-07
    0.096696697      0.83437208   8.8829921e-20               0  -0.00054358645  -5.7360245e-07               0    0.0079603945       61.565513   9.1591266e-06   3.3090227e-07
    0.098798799       0.6203327   8.8829921e-20               0    -0.001261848  -1.3315253e-06               0    0.0083384044       71.186818   9.1246924e-06   5.4455992e-07
      0.1009009      0.35479956   8.3985856e-20               0   -0.0021426569  -2.7000747e-06               0    0.0084613696       83.294505   9.1682951e-06   8.0792228e-07
       0.103003     0.020608091   8.3985856e-20               0   -0.0032401955  -4.8827927e-06               0    0.0082442751       98.717369   9.3159471e-06   1.1375576e-06
     0.10510511   1.0765838e-16   1.5564741e-19               0    -0.003261977   -6.429641e-06               0    0.0075671876       99.668428   9.6930031e-06   1.1498761e-06
     0.10720721   1.0618923e-16   1.9556938e-19               0   -0.0032126752  -7.7196059e-06               0      0.00693492       99.668428   1.0333619e-05    1.141229e-06
     0.10930931   1.0618923e-16   1.9556938e-19               0   -0.0031627991  -8.6900206e-06               0    0.0064141483       99.668428   1.1343389e-05   1.1324152e-06
     0.11141141   1.0462323e-16    2.309869e-19               0   -0.0031135213  -9.6574021e-06               0    0.0061039848       191.92585    0.0004525513   1.1236065e-06
     0.11351351    1.030721e-16   2.7575715e-19               0   -0.0030649423  -1.0595608e-05               0    0.0058565198       314.57819    0.0010848951   1.1148792e-06
     0.11561562    1.030721e-16   2.7575715e-19               0   -0.0030188225  -1.1410086e-05               0    0.0056793093       480.72157    0.0021248851   1.1065006e-06
     0.11771772   1.0157599e-16   3.0354559e-19               0   -0.0029744712  -1.1964914e-05               0     0.005523539       608.83646    0.0031039433   1.0983881e-06
     0.11981982   1.0157599e-16   3.0354559e-19               0   -0.0029318517  -1.2265503e-05               0    0.0053887621       699.71565    0.0040233399   1.0905361e-06
     0.12192192   1.0013749e-16   3.0680152e-19               0   -0.0028917944  -1.2259772e-05               0    0.0052722579       764.60164    0.0047769088   1.0830761e-06
     0.12402402   1.0013749e-16   3.0680152e-19               0   -0.0028524955  -1.2163371e-05               0    0.0051611625       821.79372    0.0054813932   1.0757322e-06
     0.12612613   9.8755236e-17   2.9958267e-19               0   -0.0028160963  -1.1912265e-05               0    0.0050656871       857.84736    0.0059752809   1.0688385e-06
     0.12822823    9.741891e-17   2.8749096e-19               0    -0.002780098  -1.1646886e-05               0    0.0049729303       891.54072     0.006440761   1.0620071e-06
     0.13033033    9.741891e-17   2.8749096e-19               0   -0.0027462345  -1.1310306e-05               0     0.004895027       913.04575    0.0067554574   1.0555074e-06
     0.13243243   9.6117969e-17   2.7073164e-19               0   -0.0027128453  -1.0960709e-05               0    0.0048205845       932.26605    0.0070383548   1.0490791e-06
     0.13453453   9.6117969e-17   2.7073164e-19               0   -0.0026809222  -1.0570877e-05               0    0.0047568385       944.42497    0.0072229718   1.0428718e-06
     0.13663664   9.4830112e-17   2.5126118e-19               0   -0.0026494191   -1.018251e-05               0    0.0046948043       954.83685    0.0073816049   1.0367239e-06
     0.13873874   9.4830112e-17   2.5126118e-19               0   -0.0026189555   -9.797772e-06               0    0.0046370081       960.92395    0.0074759148   1.0307231e-06
     0.14084084   9.3545524e-17    2.329923e-19               0    -0.002588829  -9.4236128e-06               0    0.0045791815       965.93943    0.0075537068   1.0247681e-06
     0.14294294   9.3545524e-17    2.329923e-19               0   -0.0025596099  -9.0779286e-06               0     0.004521273       968.07052    0.0075870387   1.0189366e-06
     0.14504505   9.2260607e-17   2.1597317e-19               0   -0.0025306142  -8.7388301e-06               0    0.0044633658       969.70918    0.0076126655   1.0131353e-06
     0.14714715   9.2260607e-17   2.1597317e-19               0   -0.0025025587  -8.4274333e-06               0    0.0044054638       969.27653     0.007605883   1.0074613e-06
     0.14924925   9.0975891e-17   1.9998718e-19               0   -0.0024745602  -8.1174478e-06               0    0.0043476312       968.76312    0.0075978384   1.0017952e-06
     0.15135135   9.0975891e-17   1.9998718e-19               0   -0.0024476582  -7.8346168e-06               0    0.0042911359       966.69586    0.0075655101   9.9628105e-07
     0.15345345   9.0975891e-17   1.9998718e-19               0   -0.0024207562  -7.5517859e-06               0    0.0042346405        964.6286    0.0075331817   9.9076685e-07
     0.15555556   8.9693978e-17   1.8488467e-19               0   -0.0023948483  -7.2883946e-06               0    0.0041799191       961.71339    0.0074878246   9.8539592e-07
     0.15765766   8.9693978e-17   1.8488467e-19               0   -0.0023691285  -7.0286813e-06               0    0.0041255334       958.63776    0.0074400025   9.8005209e-07
     0.15975976   8.8419551e-17   1.7041258e-19               0   -0.0023441175  -6.7763757e-06               0    0.0040726852        955.2325      0.00738731   9.7481614e-07
     0.16186186   8.8419551e-17   1.7041258e-19               0   -0.0023196533  -6.5297837e-06               0     0.004021023       951.57299    0.0073308608    9.696634e-07
     0.16396396   8.7160719e-17   1.5579346e-19               0   -0.0022955006  -6.2852243e-06               0    0.0039703854       947.85192    0.0072735861   9.6456168e-07
     0.16606607   8.7160719e-17   1.5579346e-19               0   -0.0022724632  -6.0479448e-06               0    0.0039234174       943.91034    0.0072133547    9.596427e-07
     0.16816817   8.7160719e-17   1.5579346e-19               0   -0.0022494259  -5.8106653e-06               0    0.0038764494       939.96875    0.0071531234   9.5472373e-07
     0.17027027   8.5934173e-17   1.4129835e-19               0   -0.0022274942  -5.5906135e-06               0    0.0038337509       936.01016    0.0070931222   9.4998994e-07
     0.17237237   8.5934173e-17   1.4129835e-19               0   -0.0022058392  -5.3748714e-06               0    0.0037921205       932.04732    0.0070331785   9.4530248e-07
     0.17447447   8.4726657e-17   1.2833794e-19               0   -0.0021846007  -5.1661469e-06               0    0.0037510318       928.12103    0.0069739764   9.4068698e-07
     0.17657658   8.4726657e-17   1.2833794e-19               0   -0.0021643016  -4.9732466e-06               0     0.003711165       924.27718    0.0069164463   9.3623377e-07
     0.17867868   8.4726657e-17   1.2833794e-19               0   -0.0021440025  -4.7803463e-06               0    0.0036712981       920.43332    0.0068589163   9.3178055e-07
     0.18078078   8.3557538e-17   1.1606454e-19               0   -0.0021248084  -4.5980283e-06               0    0.0036312966       916.70194    0.0068035014   9.2752927e-07
     0.18288288   8.3557538e-17   1.1606454e-19               0   -0.0021060066  -4.4194678e-06               0    0.0035912472        913.0105    0.0067488375   9.2334968e-07
     0.18498498    8.243403e-17   1.0428368e-19               0   -0.0020873404  -4.2420923e-06               0    0.0035514178       909.33503    0.0066944598   9.1919576e-07
     0.18708709    8.243403e-17   1.0428368e-19               0   -0.0020700492  -4.0767299e-06               0    0.0035138175       905.82156    0.0066429816   9.1530217e-07
     0.18918919    8.243403e-17   1.0428368e-19               0   -0.0020527581  -3.9113676e-06               0    0.0034762172       902.30809    0.0065915034   9.1140857e-07
     0.19129129   8.1362245e-17   9.3016836e-20               0   -0.0020360104  -3.7507013e-06               0    0.0034403252       898.86844    0.0065412885   9.0762131e-07
     0.19339339   8.1362245e-17   9.3016836e-20               0   -0.0020202278  -3.5983746e-06               0    0.0034074669       895.55992    0.0064933172    9.040229e-07
      0.1954955   8.1362245e-17   9.3016836e-20               0   -0.0020044451  -3.4460479e-06               0    0.0033746086       892.25139    0.0064453459   9.0042448e-07
      0.1975976   8.0348412e-17   8.2325041e-20               0     -0.00198948  -3.3009812e-06               0    0.0033444112       889.07819    0.0063995822   8.9699111e-07
      0.1996997   8.0348412e-17   8.2325041e-20               0   -0.0019751924  -3.1619305e-06               0    0.0033164189       886.01714    0.0063556478   8.9369449e-07
      0.2018018   8.0348412e-17   8.2325041e-20               0   -0.0019609048  -3.0228798e-06               0    0.0032884265       882.95608    0.0063117135   8.9039788e-07
      0.2039039   7.9397883e-17   7.2305926e-20               0   -0.0019475665   -2.892035e-06               0    0.0032635786       880.07473    0.0062706083   8.8729852e-07
     0.20600601   7.9397883e-17   7.2305926e-20               0    -0.001934746  -2.7656669e-06               0    0.0032404462       877.29142    0.0062310465   8.8430678e-07
     0.20810811   7.9397883e-17   7.2305926e-20               0   -0.0019219255  -2.6392989e-06               0    0.0032173138       874.50811    0.0061914848   8.8131503e-07
     0.21021021   7.8515406e-17   6.2880066e-20               0   -0.0019100468  -2.5206608e-06               0    0.0031969304       871.91751    0.0061548739   8.7852439e-07
     0.21231231   7.8515406e-17   6.2880066e-20               0   -0.0018986574  -2.4060388e-06               0    0.0031779752       869.42703    0.0061197962   8.7583822e-07
     0.21441441   7.8515406e-17   6.2880066e-20               0   -0.0018872679  -2.2914168e-06               0      0.00315902       866.93656    0.0060847184   8.7315205e-07
     0.21651652   7.7705403e-17   5.4064857e-20               0   -0.0018766708   -2.183926e-06               0    0.0031412095        864.6165    0.0060521912   8.7063922e-07
     0.21861862   7.7705403e-17   5.4064857e-20               0   -0.0018666536  -2.0816558e-06               0    0.0031242369       862.42121     0.006021531   8.6825328e-07
     0.22072072   7.7705403e-17   5.4064857e-20               0   -0.0018566364  -1.9793855e-06               0    0.0031072643       860.22592    0.0059908708   8.6586734e-07
     0.22282282   7.6969187e-17   4.6044349e-20               0   -0.0018471332  -1.8822067e-06               0    0.0030908514       858.14553    0.0059618973   8.6359618e-07
     0.22492492   7.6969187e-17   4.6044349e-20               0   -0.0018383946  -1.7926036e-06               0    0.0030752711       856.23607    0.0059354335   8.6149581e-07
     0.22702703   7.6969187e-17   4.6044349e-20               0   -0.0018296561  -1.7030004e-06               0    0.0030596908       854.32661    0.0059089698   8.5939545e-07
     0.22912913   7.6305169e-17     3.87983e-20               0   -0.0018210679  -1.6149279e-06               0    0.0030444342        852.4516    0.0058830036   8.5732928e-07
     0.23123123   7.6305169e-17     3.87983e-20               0   -0.0018134955  -1.5371906e-06               0    0.0030313631       850.80918    0.0058603977   8.5549408e-07
     0.23333333   7.6305169e-17     3.87983e-20               0   -0.0018059231  -1.4594533e-06               0    0.0030182921       849.16676    0.0058377918   8.5365889e-07
