#      distance             U_x             U_y             U_z wallShearStr... wallShearStr... wallShearStr...               p           omega               k             nut
    0.001215373      0.62966131   9.9147894e-05               0               0               0               0   0.00015890678       356.91848    0.0041861478   1.5160197e-05
   0.0020572852      0.68699743   0.00011986277               0               0               0               0   0.00016300831       180.47928    0.0041284557   2.5066794e-05
   0.0029273097      0.72303729   0.00014445413               0               0               0               0   0.00016824551       119.73101    0.0039713986   3.4680903e-05
   0.0038263852      0.75019385   0.00017349924               0               0               0               0   0.00017418408       89.971565    0.0038430999   4.3783273e-05
   0.0047554818      0.77243506   0.00020683316               0               0               0               0   0.00018052607       72.469466    0.0037249172   5.2171644e-05
   0.0057156019      0.79159645    0.0002443295               0               0               0               0   0.00018705576        61.05462    0.0036077179   5.9648134e-05
   0.0067077814       0.8086954    0.0002859572               0               0               0               0   0.00019359669       53.114655    0.0034871905   6.6050927e-05
   0.0077330908      0.82436022   0.00033176185               0               0               0               0    0.0001999867       47.357851    0.0033608735   7.1239739e-05
   0.0087926364      0.83901958   0.00038195541               0               0               0               0   0.00020606955       43.072235     0.003226902   7.5006896e-05
   0.0098875613      0.85301769   0.00043699047               0               0               0               0    0.0002116831       39.821269    0.0030828461   7.6909489e-05
    0.011019047      0.86666198   0.00049757616               0               0               0               0    0.0002166321        37.30388    0.0029251312   7.6702093e-05
    0.012188314      0.88020198   0.00056479109               0               0               0               0   0.00022070805       35.293289     0.002749178   7.4568816e-05
    0.013396624      0.89382011   0.00064010003               0               0               0               0   0.00022375995       33.604987    0.0025496641   7.0737682e-05
    0.014645281      0.90764279   0.00072504454               0               0               0               0   0.00022573203       32.078467    0.0023212536   6.5468661e-05
    0.015935632      0.92171473   0.00082061184               0               0               0               0   0.00022664821       30.574533    0.0020602622   5.9221866e-05
    0.017269069      0.93591764    0.0009263247               0               0               0               0   0.00022657265       28.986963    0.0017678609   5.2725493e-05
    0.018647031      0.94987455    0.0010391366               0               0               0               0    0.0002255825       27.282793    0.0014549847   4.6781305e-05
    0.020071004      0.96302537    0.0011540225               0               0               0               0   0.00022381591       25.487268     0.001140119   4.1379131e-05
    0.021542526      0.97503906    0.0012670894               0               0               0               0   0.00022150484       23.532382   0.00083490667   3.4512886e-05
    0.023063183      0.98587374    0.0013758143               0               0               0               0   0.00021885316       21.086466   0.00054503216   2.5311724e-05
    0.024634616       0.9949364    0.0014703515               0               0               0               0   0.00021593803       17.524197   0.00029264502   1.5826354e-05
    0.026258521       1.0008296    0.0015308047               0               0               0               0   0.00021285274        12.69004   0.00011661976   8.1269911e-06
     0.02793665       1.0032298     0.001552648               0               0               0               0   0.00020983676       8.3021149     3.12544e-05   3.1487872e-06
    0.029670814       1.0037146     0.001554684               0               0               0               0   0.00020702459       6.2086801   5.6795728e-06   8.3601461e-07
    0.031462883       1.0037488      0.00155167               0               0               0               0   0.00020431201       5.7843366   1.2886981e-06   2.2139756e-07
    0.033314791       1.0037463    0.0015480734               0               0               0               0   0.00020155931       5.7421239   8.3848073e-07   1.4601221e-07
    0.035228536       1.0037445    0.0015426903               0               0               0               0   0.00019865926       5.7389367   8.0335798e-07   1.3997931e-07
    0.037206184       1.0037431    0.0015391345               0               0               0               0   0.00019561336       5.7387141    8.008494e-07   1.3954733e-07
    0.039249867       1.0037415    0.0015412792               0               0               0               0   0.00019256306       5.7386955   8.0067875e-07   1.3951802e-07
     0.04136179       1.0037389    0.0015429117               0               0               0               0   0.00018957221       5.7386896   8.0066685e-07   1.3951609e-07
    0.043544233       1.0037359    0.0015417626               0               0               0               0   0.00018658631       5.7386837   8.0066511e-07   1.3951593e-07
     0.04579955       1.0037329      0.00153987               0               0               0               0   0.00018355281        5.738677   8.0066389e-07   1.3951588e-07
    0.048130175       1.0037301    0.0015377377               0               0               0               0   0.00018043829       5.7386694   8.0066258e-07   1.3951584e-07
    0.050538621       1.0037316    0.0015363292               0               0               0               0    0.0001772483       5.7386618   8.0066136e-07   1.3951581e-07
    0.053027488       1.0037422       0.0015412               0               0               0               0   0.00017408397       5.7386532   8.0066013e-07    1.395158e-07
    0.055599461       1.0037552    0.0015532319               0               0               0               0   0.00017113399       5.7386416   8.0065822e-07   1.3951575e-07
    0.058257315       1.0037636    0.0015636814               0               0               0               0   0.00016848292        5.738628   8.0065582e-07   1.3951567e-07
    0.061003917       1.0037689    0.0015700685               0               0               0               0   0.00016606469       5.7386135   8.0065341e-07    1.395156e-07
    0.063842231       1.0037733    0.0015746388               0               0               0               0   0.00016382651       5.7385978   8.0065087e-07   1.3951554e-07
     0.06677532       1.0037767    0.0015770541               0               0               0               0   0.00016174618       5.7385806   8.0064811e-07   1.3951547e-07
    0.069806347       1.0037799    0.0015773404               0               0               0               0   0.00015981942       5.7385617   8.0064513e-07   1.3951541e-07
    0.072938584       1.0037827    0.0015748991               0               0               0               0   0.00015804891       5.7385409   8.0064186e-07   1.3951535e-07
    0.076175409       1.0037832    0.0015698885               0               0               0               0   0.00015638977       5.7385182    8.006383e-07   1.3951528e-07
    0.079520315       1.0037803    0.0015626537               0               0               0               0   0.00015477372       5.7384934   8.0063443e-07   1.3951521e-07
    0.082976911       1.0037755    0.0015548487               0               0               0               0   0.00015317005       5.7384664   8.0063023e-07   1.3951514e-07
    0.086548926       1.0037699    0.0015473823               0               0               0               0   0.00015158495       5.7384372   8.0062568e-07   1.3951505e-07
    0.090240215       1.0037637    0.0015402913               0               0               0               0   0.00015002133       5.7384058   8.0062077e-07   1.3951496e-07
     0.09405476       1.0037581     0.001533408               0               0               0               0   0.00014847219       5.7383788   8.0061643e-07   1.3951486e-07
