#      distance             U_x             U_y             U_z wallShearStr... wallShearStr... wallShearStr...               p           omega               k             nut
    0.001215373      0.62966265    9.863137e-05               0               0               0               0   0.00015949462       356.91873    0.0041861404   1.5160181e-05
   0.0020572852       0.6869986   0.00011940986               0               0               0               0    0.0001635929        180.4791    0.0041284361   2.5066726e-05
   0.0029273097      0.72303824   0.00014409136               0               0               0               0   0.00016882591       119.73067    0.0039713754   3.4680816e-05
   0.0038263852      0.75019456   0.00017320065               0               0               0               0   0.00017475921        89.97119    0.0038430768   4.3783202e-05
   0.0047554818      0.77243555   0.00020657577               0               0               0               0   0.00018109518       72.469128    0.0037248962   5.2171596e-05
   0.0057156019      0.79159675   0.00024410091               0               0               0               0   0.00018761843       61.054346       0.0036077   5.9648105e-05
   0.0067077814      0.80869557   0.00028574818               0               0               0               0    0.0001941528       53.114449     0.003487176   6.6050907e-05
   0.0077330908       0.8243603   0.00033156418               0               0               0               0   0.00020053632       47.357717     0.003360863   7.1239717e-05
   0.0087926364      0.83901963   0.00038176215               0               0               0               0   0.00020661281       43.072182    0.0032268963   7.5006784e-05
   0.0098875613      0.85301779   0.00043679662               0               0               0               0   0.00021222019       39.821314    0.0030828465   7.6909022e-05
    0.011019047      0.86666224   0.00049737919               0               0               0               0   0.00021716319        37.30405    0.0029251396   7.6701124e-05
    0.012188314      0.88020251   0.00056459486               0               0               0               0   0.00022123325       35.293619    0.0027491966   7.4567384e-05
    0.013396624      0.89382108    0.0006399167               0               0               0               0   0.00022427931       33.605509    0.0025496948   7.0735798e-05
    0.014645281      0.90764441   0.00072488701               0               0               0               0   0.00022624548       32.079199    0.0023212975   6.5466348e-05
    0.015935632      0.92171726   0.00082049025               0               0               0               0   0.00022715565       30.575458    0.0020603178   5.9219158e-05
    0.017269069      0.93592136   0.00092624926               0               0               0               0   0.00022707394       28.988011    0.0017679231    5.272244e-05
    0.018647031      0.94987975    0.0010391175               0               0               0               0   0.00022607747       27.283837    0.0014550444   4.6778065e-05
    0.020071004      0.96303213    0.0011540675               0               0               0               0    0.0002243044       25.488188    0.0011401692   4.1376577e-05
    0.021542526      0.97504717    0.0012672101               0               0               0               0   0.00022198684       23.533152   0.00083494845   3.4512361e-05
    0.023063183      0.98588293    0.0013760279               0               0               0               0   0.00021932904       21.087152   0.00054506855   2.5312633e-05
    0.024634616      0.99494665    0.0014706672               0               0               0               0   0.00021640862        17.52488   0.00029267298   1.5827325e-05
    0.026258521       1.0008408    0.0015311987               0               0               0               0   0.00021331913       12.690687    0.0001166357   8.1277675e-06
     0.02793665       1.0032415    0.0015530757               0               0               0               0   0.00021029965        8.302532   3.1260535e-05   3.1492607e-06
    0.029670814       1.0037266     0.001555105               0               0               0               0   0.00020748355       6.2088252   5.6810531e-06   8.3620155e-07
    0.031462883        1.003761    0.0015520589               0               0               0               0   0.00020476501       5.7843736   1.2889141e-06   2.2143246e-07
    0.033314791       1.0037586    0.0015489333               0               0               0               0    0.0002020032       5.7421437   8.3850441e-07   1.4601583e-07
    0.035228536       1.0037567    0.0015442314               0               0               0               0   0.00019909349        5.738955   8.0336202e-07   1.3997956e-07
    0.037206184       1.0037551    0.0015401508               0               0               0               0   0.00019604157       5.7387322   8.0085177e-07    1.395473e-07
    0.039249867       1.0037535    0.0015415241               0               0               0               0    0.0001929883       5.7387136   8.0068098e-07   1.3951797e-07
     0.04136179       1.0037513    0.0015430006               0               0               0               0   0.00018999468       5.7387078   8.0066909e-07   1.3951604e-07
    0.043544233       1.0037484    0.0015418476               0               0               0               0   0.00018700575        5.738702   8.0066736e-07   1.3951588e-07
     0.04579955       1.0037454     0.001540156               0               0               0               0   0.00018396932       5.7386954   8.0066615e-07   1.3951583e-07
    0.048130175       1.0037425    0.0015379032               0               0               0               0   0.00018085162       5.7386877   8.0066484e-07   1.3951579e-07
    0.050538621       1.0037418    0.0015351895               0               0               0               0   0.00017765934       5.7386796   8.0066354e-07   1.3951576e-07
    0.053027488       1.0037495    0.0015378315               0               0               0               0   0.00017449563       5.7386711   8.0066228e-07   1.3951575e-07
    0.055599461       1.0037623    0.0015491657               0               0               0               0   0.00017154801       5.7386599   8.0066044e-07    1.395157e-07
    0.058257315       1.0037713    0.0015602978               0               0               0               0   0.00016889897       5.7386464   8.0065809e-07   1.3951561e-07
    0.061003917       1.0037767    0.0015670814               0               0               0               0   0.00016648211        5.738632   8.0065568e-07   1.3951554e-07
    0.063842231        1.003781    0.0015719902               0               0               0               0   0.00016424483       5.7386163   8.0065314e-07   1.3951548e-07
     0.06677532       1.0037845    0.0015747421               0               0               0               0   0.00016216519       5.7385991   8.0065039e-07   1.3951542e-07
    0.069806347       1.0037872     0.001575666               0               0               0               0    0.0001602381       5.7385803   8.0064741e-07   1.3951536e-07
    0.072938584       1.0037897    0.0015737461               0               0               0               0   0.00015846538       5.7385595   8.0064414e-07    1.395153e-07
    0.076175409       1.0037907    0.0015691462               0               0               0               0   0.00015680347       5.7385368   8.0064059e-07   1.3951523e-07
    0.079520315       1.0037887     0.001562532               0               0               0               0   0.00015518547       5.7385121   8.0063673e-07   1.3951516e-07
    0.082976911       1.0037843    0.0015549303               0               0               0               0   0.00015357988       5.7384852   8.0063254e-07   1.3951508e-07
    0.086548926       1.0037787    0.0015473738               0               0               0               0   0.00015199233        5.738456     8.00628e-07     1.39515e-07
    0.090240215       1.0037725    0.0015402169               0               0               0               0     0.000150426       5.7384247   8.0062309e-07   1.3951491e-07
     0.09405476       1.0037669    0.0015332663               0               0               0               0   0.00014887396       5.7383977   8.0061876e-07   1.3951481e-07
