#      distance             U_x             U_y             U_z wallShearStr... wallShearStr... wallShearStr...               p           omega               k             nut
    0.034013023      0.99914435   5.1233569e-06               0               0               0               0    0.0048550875       69.038319   1.1919968e-05   1.7265712e-07
    0.056204344      0.99878543   9.2044713e-06               0               0               0               0    0.0052156746       62.950765   1.0786204e-05   1.7134342e-07
    0.072112662      0.99830304   1.3734778e-05               0               0               0               0    0.0056531505       59.102503   1.0073286e-05   1.7043751e-07
    0.083516877      0.99780296   3.4046888e-05               0               0               0               0    0.0062189021       56.573744   9.6065719e-06   1.6980617e-07
     0.09169223      0.99666434   6.9446454e-05               0               0               0               0    0.0069930485       54.867446   9.2924933e-06   1.6936259e-07
    0.097552904      0.99563879   0.00079766666               0  -1.3873513e-06  -1.4638359e-09               0    0.0083522189        53.72039   9.0780407e-06   1.6945927e-07
     0.10156632      0.98100565   0.00075515405               0  -4.1316161e-06    -5.62653e-09               0    0.0087525779        99.64936   9.1322736e-06   8.2118363e-08
     0.10474707      0.96809012    0.0013997862               0  -5.4261982e-06  -1.0243812e-08               0    0.0077056173       99.668428   9.5182021e-06   4.4801203e-08
     0.10802554      0.95487926    0.0017588177               0  -5.2983566e-06  -1.3436902e-08               0    0.0065804272       99.668428   1.0337443e-05   3.2893184e-08
     0.11140473       0.9407974    0.0020772971               0  -5.1663125e-06  -1.6020457e-08               0    0.0060565765       99.820911   1.3442348e-05    3.018292e-08
     0.11488774       0.9268492      0.00247997               0  -5.0354228e-06  -1.8465993e-08               0    0.0057195074       467.19288    0.0017675858   3.1760293e-06
     0.11847776      0.91339583    0.0027298353               0  -4.9097685e-06  -2.0034866e-08               0    0.0054601239       658.54097    0.0035110784   5.3245355e-06
     0.12217807      0.90046051    0.0027590768               0   -4.790211e-06  -2.0324071e-08               0    0.0052518826       782.35483    0.0049552705   6.3251269e-06
     0.12599207       0.8880309     0.002694143               0  -4.6764028e-06  -1.9793608e-08               0    0.0050627879       862.95197    0.0060287726   6.9764665e-06
     0.12992323      0.87601433    0.0025853943               0  -4.5675203e-06  -1.8876008e-08               0    0.0049008136       913.96164    0.0067625452   7.3886882e-06
     0.13397518      0.86431594    0.0024346738               0  -4.4623651e-06  -1.7712957e-08               0    0.0047667616       944.60898    0.0072236699   7.6363454e-06
     0.13815161       0.8527352    0.0022595746               0  -4.3595713e-06  -1.6436266e-08               0    0.0046511375       961.54956     0.007485088   7.4786953e-06
     0.14245635      0.84118385    0.0020952843               0  -4.2582076e-06  -1.5196248e-08               0    0.0045334748       969.16545    0.0076041271   7.2089947e-06
     0.14689334      0.82962953    0.0019422314               0  -4.1579442e-06  -1.4046443e-08               0    0.0044102867       970.41187    0.0076236989   6.8882018e-06
     0.15146665      0.81807702    0.0017984683               0  -4.0587825e-06  -1.2974603e-08               0    0.0042853099       967.31277    0.0075750833   6.5482292e-06
     0.15618046      0.80654971    0.0016626493               0  -3.9609203e-06  -1.1965829e-08               0    0.0041607615       961.28176      0.00748092   6.2094902e-06
     0.16103908      0.79508971    0.0015324965               0  -3.8647282e-06  -1.0995276e-08               0    0.0040377695         953.311    0.0073573745    5.884883e-06
     0.16604698      0.78376994    0.0014010335               0  -3.7708876e-06  -1.0039153e-08               0    0.0039184352       944.10978     0.007216036   5.5827909e-06
     0.17120873       0.7727405    0.0012706761               0  -3.6798852e-06  -9.1168666e-09               0     0.003810727       934.24705    0.0070660584   5.3126943e-06
     0.17652907      0.76188218    0.0011541172               0  -3.5918359e-06  -8.2594546e-09               0    0.0037110358       924.35394    0.0069172009   5.0693214e-06
     0.18201286      0.75136915    0.0010437367               0  -3.5072614e-06   -7.455899e-09               0    0.0036060303       914.49552    0.0067704412   4.8579005e-06
     0.18766512      0.74126627   0.00093778723               0   -3.426799e-06  -6.6890619e-09               0    0.0034990962        904.8028    0.0066276823       4.674e-06
     0.19349103      0.73162852   0.00083646162               0  -3.3508063e-06  -5.9589943e-09               0    0.0034009446       895.31529    0.0064894188   4.5149594e-06
     0.19949593      0.72251188   0.00074030903               0  -3.2795965e-06  -5.2688771e-09               0    0.0033143769       886.18655    0.0063577595   4.3801045e-06
     0.20568532      0.71396449   0.00065020705               0  -3.2134337e-06  -4.6209588e-09               0    0.0032387563       877.56233    0.0062346161    4.268924e-06
     0.21206485      0.70602904    0.0005654413               0  -3.1525337e-06   -4.014616e-09               0    0.0031762388       869.54847    0.0061212671   4.1805927e-06
     0.21864039      0.69874529   0.00048616797               0  -3.0970353e-06  -3.4522142e-09               0      0.00312209       862.21736    0.0060184858   4.1144849e-06
     0.22541793      0.69212506   0.00041404182               0  -3.0469187e-06  -2.9394769e-09               0    0.0030685652       855.60669    0.0059265513   4.0695174e-06
     0.23240371      0.68615405   0.00034888153               0  -3.0019979e-06  -2.4785997e-09               0    0.0030202095       849.71825    0.0058452566   4.0442029e-06
      0.2396041      0.68080559   0.00029062533               0  -2.9619859e-06  -2.0702134e-09               0    0.0029804671       844.52522    0.0057740286   4.0368374e-06
      0.2470257      0.67604353   0.00024021241               0  -2.9265319e-06  -1.7161289e-09               0    0.0029476512       839.98016    0.0057120467   4.0455434e-06
     0.25467531      0.67182117   0.00019750586               0  -2.8952365e-06  -1.4146548e-09               0    0.0029202231       836.02096    0.0056583267   4.0682769e-06
     0.26255994      0.66808844   0.00016133158               0  -2.8677018e-06  -1.1593452e-09               0    0.0028990757       832.58009    0.0056118457   4.1029397e-06
      0.2706868      0.66480605   0.00013059594               0  -2.8435688e-06  -9.4410675e-10               0    0.0028828757       829.59833    0.0055717217    4.147482e-06
     0.27906334      0.66193097   0.00010521924               0  -2.8224695e-06  -7.6528048e-10               0    0.0028637961       827.02605    0.0055372233   4.2021011e-06
     0.28769723      0.65940654   8.4363981e-05               0  -2.8039778e-06  -6.1989612e-10               0    0.0028407987       824.80159    0.0055074759   4.2654497e-06
     0.29659637      0.65717055   6.8045386e-05               0   -2.787631e-06  -5.0654325e-10               0    0.0028183535       822.85145    0.0054814628   4.3354904e-06
     0.30576892      0.65516089   5.6570477e-05               0  -2.7729726e-06  -4.2389764e-10               0    0.0027975529       821.09724    0.0054581157   4.4098904e-06
     0.31522326      0.65332053   4.9077289e-05               0  -2.7596079e-06  -3.6596307e-10               0    0.0027785186       819.47311    0.0054365442   4.4863401e-06
     0.32496807      0.65161334   4.3595768e-05               0  -2.7472478e-06   -3.249836e-10               0    0.0027628241       817.93097     0.005416101   4.5634513e-06
     0.33501226      0.65001253   4.0167595e-05               0  -2.7356616e-06  -2.9839428e-10               0    0.0027429136       816.43665    0.0053963284   4.6402138e-06
     0.34536503      0.64848284   3.9231856e-05               0  -2.7246054e-06  -2.8609627e-10               0    0.0027140218       814.95941    0.0053768172   4.7155142e-06
     0.35603587      0.64698781   3.9986404e-05               0  -2.7138332e-06  -2.8537273e-10               0    0.0026829298        813.4712    0.0053571969   4.7882434e-06
     0.36703454       0.6454999   4.1944171e-05               0  -2.7031452e-06  -2.9247846e-10               0     0.002653936       811.95029    0.0053371824   4.8575271e-06
     0.37837111      0.64399967   4.4581177e-05               0  -2.6924055e-06  -3.0399824e-10               0    0.0026269356       810.38032    0.0053165616   4.9226528e-06
     0.39005597      0.64247766   4.7323861e-05               0  -2.6815338e-06   -3.175017e-10               0    0.0026003003       808.75303    0.0052952302   4.9830572e-06
     0.40209982      0.64092705   5.0310668e-05               0   -2.670472e-06  -3.3324593e-10               0    0.0025689089       807.06514    0.0052731494   5.0384159e-06
     0.41451368      0.63933774   5.4062525e-05               0  -2.6591346e-06  -3.5275714e-10               0    0.0025321266       805.31327    0.0052502803   5.0882153e-06
     0.42730893      0.63768791   5.8440445e-05               0  -2.6473993e-06  -3.7529562e-10               0    0.0024949234       803.48656    0.0052264875   5.1340461e-06
     0.44049728      0.63596139   6.2709607e-05               0  -2.6351714e-06  -3.9761399e-10               0    0.0024597201       801.57445      0.00520164   5.1755283e-06
      0.4540908      0.63415748   6.6340236e-05               0  -2.6224352e-06   -4.171079e-10               0     0.002425898       799.57757     0.005175754   5.2119273e-06
     0.46810195      0.63228315   6.9443101e-05               0  -2.6092238e-06  -4.3342819e-10               0    0.0023876567       797.50526    0.0051489586   5.2428055e-06
     0.48254356      0.63034192    7.212758e-05               0  -2.5955702e-06  -4.4674593e-10               0     0.002344072       795.36655    0.0051213773   5.2680707e-06
     0.49742885      0.62833671   7.4172907e-05               0  -2.5815153e-06  -4.5599947e-10               0    0.0023008576       793.16881    0.0050931122   5.2880431e-06
     0.51277145      0.62627978    7.517948e-05               0  -2.5671466e-06  -4.5969866e-10               0    0.0022623481       790.92445    0.0050643282   5.3034771e-06
     0.52858541       0.6241918   7.5145974e-05               0  -2.5525871e-06  -4.5798618e-10               0    0.0022251354       788.65283    0.0050352776   5.3151915e-06
     0.54488522      0.62208826   7.4546141e-05               0  -2.5379364e-06  -4.5267062e-10               0    0.0021836161       786.36986    0.0050061661   5.3240203e-06
     0.56168579      0.61997386   7.3621268e-05               0  -2.5232409e-06  -4.4527311e-10               0    0.0021399821       784.08087    0.0049770626   5.3309027e-06
     0.57900252      0.61784974   7.2414802e-05               0  -2.5085251e-06  -4.3618765e-10               0    0.0020986802       781.78671    0.0049479786   5.3363529e-06
     0.59685126      0.61572273    7.086439e-05               0  -2.4938286e-06  -4.2558096e-10               0    0.0020599265         779.492    0.0049189731   5.3406504e-06
     0.61524836      0.61360072   6.9178349e-05               0  -2.4791916e-06   -4.142686e-10               0    0.0020190012       777.20411    0.0048901385   5.3438769e-06
     0.63421066      0.61148437   6.7570001e-05               0  -2.4646315e-06  -4.0282145e-10               0    0.0019747717       774.92645    0.0048615169   5.3459669e-06
     0.65375553      0.60937458   6.5795247e-05               0  -2.4501659e-06  -3.9070518e-10               0    0.0019324905       772.66108    0.0048331335   5.3469943e-06
     0.67390086      0.60727938    6.374981e-05               0  -2.4358363e-06  -3.7754825e-10               0    0.0018924871       770.41393    0.0048050605   5.3472151e-06
     0.69466511      0.60520639   6.1622685e-05               0  -2.4216812e-06  -3.6401855e-10               0    0.0018508569       768.19112    0.0047773721   5.3468254e-06
     0.71606728      0.60315525   5.9602922e-05               0  -2.4077119e-06  -3.5063647e-10               0    0.0018071232       765.99321    0.0047500726   5.3458741e-06
     0.73812698      0.60112635   5.7480305e-05               0  -2.3939359e-06  -3.3717023e-10               0    0.0017658376       763.81986    0.0047231552   5.3444709e-06
     0.76086441      0.59912432   5.5312646e-05               0  -2.3803644e-06  -3.2390409e-10               0    0.0017252409       761.67158    0.0046966235   5.3429203e-06
     0.78430038      0.59714689   5.3394937e-05               0   -2.366985e-06  -3.1162821e-10               0     0.001681438       759.54536     0.004670438   5.3412435e-06
     0.80845637      0.59518724   5.1647151e-05               0  -2.3537686e-06  -3.0026838e-10               0    0.0016374472       757.43583    0.0046445305   5.3392909e-06
     0.83335448      0.59324476   4.9889244e-05               0  -2.3407063e-06  -2.8926158e-10               0    0.0015952136       755.34241    0.0046188923   5.3370119e-06
     0.85901753      0.59132269   4.8169623e-05               0  -2.3278031e-06  -2.7864773e-10               0    0.0015517196        753.2685    0.0045935632   5.3343734e-06
       0.885469       0.5894187   4.6611094e-05               0  -2.3150558e-06  -2.6847731e-10               0    0.0015057565       751.21386    0.0045685383   5.3312734e-06
     0.91273313      0.58753279   4.4960889e-05               0  -2.3024703e-06  -2.5827671e-10               0    0.0014622391       749.17872    0.0045438187   5.3277932e-06
     0.94083488      0.58567144   4.3257206e-05               0  -2.2900641e-06  -2.4816547e-10               0    0.0014187487       747.16807    0.0045194622   5.3240546e-06
     0.96979998      0.58383271   4.1762532e-05               0  -2.2778327e-06  -2.3866517e-10               0    0.0013715515       745.18003    0.0044954444   5.3200391e-06
     0.99965496      0.58201189   4.0292449e-05               0  -2.2657598e-06  -2.2960155e-10               0    0.0013261071       743.20929    0.0044716987   5.3157979e-06
      1.0304272       0.5802111   3.8823241e-05               0  -2.2538397e-06  -2.2091151e-10               0    0.0012813641       741.25625    0.0044482285   5.3114095e-06
      1.0621447      0.57842792    3.754776e-05               0  -2.2420615e-06  -2.1281397e-10               0    0.0012328918       739.31982     0.004425019   5.3067466e-06
      1.0948368      0.57665898   3.6275104e-05               0  -2.2304166e-06  -2.0496948e-10               0    0.0011854743       737.39823    0.0044020474   5.3017593e-06
      1.1285332      0.57490865   3.4947097e-05               0  -2.2189139e-06   -1.971973e-10               0    0.0011389156       735.49519    0.0043793565     5.29655e-06
      1.1632648      0.57317744   3.3741803e-05               0  -2.2075582e-06  -1.8972824e-10               0     0.001089178       733.61209    0.0043569612   5.2910838e-06
      1.1990635      0.57146335   3.2534898e-05               0  -2.1963468e-06  -1.8248113e-10               0    0.0010405599       731.74684    0.0043348347   5.2853996e-06
       1.235962      0.56976871   3.1332243e-05               0  -2.1852786e-06  -1.7550254e-10               0   0.00099224953       729.89977    0.0043129794   5.2796043e-06
      1.2739941      0.56809064   3.0281413e-05               0  -2.1743422e-06  -1.6899835e-10               0   0.00094062375       728.06843    0.0042913645   5.2736229e-06
      1.3131947      0.56642601   2.9239631e-05               0  -2.1635257e-06  -1.6277341e-10               0   0.00088995603       726.25056    0.0042699622   5.2674217e-06
      1.3535996      0.56477709   2.8202161e-05               0  -2.1528312e-06  -1.5668571e-10               0   0.00083922928       724.44828    0.0042487962   5.2610498e-06
      1.3952458      0.56314419   2.7220666e-05               0  -2.1422634e-06  -1.5078992e-10               0   0.00078665949       722.66268    0.0042278777   5.2544943e-06
      1.4381715       0.5615276   2.6239419e-05               0  -2.1318214e-06  -1.4510714e-10               0   0.00073449476       720.89388    0.0042072068   5.2477894e-06
       1.482416      0.55992644   2.5331529e-05               0  -2.1214995e-06  -1.3969398e-10               0   0.00068105671       719.14027    0.0041867633   5.2409478e-06
      1.5280198      0.55833888   2.4450552e-05               0  -2.1112908e-06  -1.3451985e-10               0    0.0006277894       717.39995    0.0041665237   5.2339718e-06
      1.5750246      0.55676555   2.3595304e-05               0  -2.1011914e-06  -1.2955725e-10               0   0.00057406483       715.67351     0.004146494    5.226867e-06
      1.6234735      0.55520509   2.2796842e-05               0  -2.0911987e-06  -1.2480659e-10               0   0.00051893175       713.96048    0.0041266674    5.219605e-06
      1.6734109      0.55365819   2.1996348e-05               0  -2.0813092e-06  -1.2023664e-10               0   0.00046512786       712.26166    0.0041070523   5.2122076e-06
      1.7248825      0.55212296   2.1257779e-05               0  -2.0715213e-06  -1.1592832e-10               0   0.00041058498       710.57478    0.0040876211   5.2047031e-06
      1.7779355      0.55060183   2.0569068e-05               0  -2.0618064e-06  -1.1188049e-10               0    0.0003588037       708.90161    0.0040683934   5.1970091e-06
      1.8326183      0.54907409   1.9908038e-05               0  -2.0522085e-06  -1.0811779e-10               0   0.00030464659       707.22359    0.0040491559   5.1892807e-06
      1.8889812      0.54760671   1.9321011e-05               0  -2.0426061e-06   -1.440182e-10               0   0.00027232085       705.59939     0.004030582   5.1814269e-06
      1.9470756      0.54600971   5.0467988e-05               0  -2.0330311e-06  -2.7468931e-10               0   0.00016163409       703.86259    0.0040107555   5.1728783e-06
      2.0069548      0.54461684   9.4341663e-05               0  -2.0227901e-06  -4.1542073e-10               0   0.00035884025       702.32874    0.0039932957   5.1610189e-06
