#      distance             U_x             U_y             U_z wallShearStr... wallShearStr... wallShearStr...               p           omega               k             nut
    0.001215373      0.62966153   9.9104067e-05               0               0               0               0   0.00015886667       356.91866    0.0041861469   1.5160184e-05
   0.0020572852      0.68699768   0.00011982959               0               0               0               0   0.00016296756       180.47936    0.0041284529   2.5066767e-05
   0.0029273097      0.72303755   0.00014443463               0               0               0               0   0.00016820391       119.73102    0.0039713943   3.4680868e-05
   0.0038263852      0.75019409   0.00017348579               0               0               0               0   0.00017414136       89.971537    0.0038430951   4.3783236e-05
   0.0047554818      0.77243528   0.00020682209               0               0               0               0   0.00018048202        72.46943    0.0037249127   5.2171609e-05
   0.0057156019      0.79159664   0.00024431893               0               0               0               0   0.00018701022       61.054591    0.0036077142   5.9648103e-05
   0.0067077814      0.80869558   0.00028594618               0               0               0               0   0.00019354956        53.11464     0.003487188   6.6050897e-05
   0.0077330908      0.82436039    0.0003317501               0               0               0               0   0.00019993791       47.357858    0.0033608725   7.1239707e-05
   0.0087926364      0.83901976   0.00038194295               0               0               0               0   0.00020601901       43.072269    0.0032269028   7.5006837e-05
   0.0098875613       0.8530179   0.00043697779               0               0               0               0    0.0002116308       39.821337    0.0030828491   7.6909332e-05
    0.011019047      0.86666225   0.00049756428               0               0               0               0   0.00021657802       37.303987    0.0029251367   7.6701799e-05
    0.012188314      0.88020235   0.00056478177               0               0               0               0   0.00022065221       35.293439    0.0027491862    7.456841e-05
    0.013396624      0.89382061   0.00064009602               0               0               0               0   0.00022370241       33.605181    0.0025496749   7.0737192e-05
    0.014645281      0.90764347   0.00072504901               0               0               0               0   0.00022567284       32.078703    0.0023212669   6.5468113e-05
    0.015935632      0.92171563   0.00082062755               0               0               0               0   0.00022658746       30.574801    0.0020602768   5.9221285e-05
    0.017269069      0.93591881   0.00092635382               0               0               0               0    0.0002265104       28.987243    0.0017678754   5.2724905e-05
    0.018647031      0.94987601    0.0010391805               0               0               0               0   0.00022551882       27.283053     0.001454997   4.6780764e-05
    0.020071004      0.96302709    0.0011540815               0               0               0               0   0.00022375084        25.48748    0.0011401278   4.1378777e-05
    0.021542526      0.97504094    0.0012671639               0               0               0               0   0.00022143846       23.532534   0.00083491264   3.4512809e-05
    0.023063183      0.98587566    0.0013759048               0               0               0               0   0.00021878559       21.086573    0.0005450368   2.5311814e-05
    0.024634616      0.99493828    0.0014704521               0               0               0               0   0.00021586944       17.524291   0.00029264864   1.5826477e-05
    0.026258521       1.0008314    0.0015309036               0               0               0               0   0.00021278332       12.690142     0.000116622   8.1270994e-06
     0.02793665       1.0032316    0.0015527542               0               0               0               0   0.00020976661         8.30219   3.1255352e-05   3.1488582e-06
    0.029670814       1.0037164    0.0015548368               0               0               0               0   0.00020695366       6.2087076   5.6798143e-06   8.3604431e-07
    0.031462883       1.0037504    0.0015518749               0               0               0               0   0.00020423999        5.784344   1.2887329e-06   2.2140313e-07
    0.033314791        1.003748    0.0015484303               0               0               0               0   0.00020148592       5.7421283   8.3848452e-07   1.4601276e-07
    0.035228536       1.0037461    0.0015431255               0               0               0               0   0.00019858502        5.738941   8.0335878e-07   1.3997934e-07
    0.037206184       1.0037447    0.0015393001               0               0               0               0   0.00019553894       5.7387183   8.0084995e-07   1.3954733e-07
    0.039249867       1.0037431    0.0015413215               0               0               0               0   0.00019248852       5.7386996   8.0067927e-07   1.3951801e-07
     0.04136179       1.0037406     0.001542906               0               0               0               0   0.00018949749       5.7386937   8.0066737e-07   1.3951608e-07
    0.043544233       1.0037376    0.0015416325               0               0               0               0   0.00018651106       5.7386879   8.0066563e-07   1.3951592e-07
     0.04579955       1.0037346    0.0015398419               0               0               0               0   0.00018347655       5.7386812   8.0066441e-07   1.3951587e-07
    0.048130175       1.0037316    0.0015377145               0               0               0               0   0.00018036093       5.7386736    8.006631e-07   1.3951583e-07
    0.050538621       1.0037325    0.0015359297               0               0               0               0   0.00017717014       5.7386659   8.0066187e-07    1.395158e-07
    0.053027488       1.0037426    0.0015402413               0               0               0               0   0.00017400568       5.7386574   8.0066064e-07   1.3951579e-07
    0.055599461       1.0037554    0.0015521319               0               0               0               0   0.00017105594       5.7386458   8.0065875e-07   1.3951575e-07
    0.058257315       1.0037641    0.0015627821               0               0               0               0   0.00016840504       5.7386322   8.0065635e-07   1.3951566e-07
    0.061003917       1.0037694     0.001569296               0               0               0               0    0.0001659869       5.7386177   8.0065394e-07   1.3951559e-07
    0.063842231       1.0037738     0.001573964               0               0               0               0   0.00016374875        5.738602    8.006514e-07   1.3951553e-07
     0.06677532       1.0037772     0.001576468               0               0               0               0   0.00016166845       5.7385848   8.0064864e-07   1.3951547e-07
    0.069806347       1.0037803    0.0015769479               0               0               0               0   0.00015974156       5.7385659   8.0064566e-07   1.3951541e-07
    0.072938584       1.0037831    0.0015746725               0               0               0               0   0.00015797055       5.7385451   8.0064239e-07   1.3951534e-07
    0.076175409       1.0037837    0.0015697446               0               0               0               0   0.00015631078       5.7385224   8.0063883e-07   1.3951527e-07
    0.079520315        1.003781    0.0015626395               0               0               0               0   0.00015469425       5.7384976   8.0063497e-07    1.395152e-07
    0.082976911       1.0037762    0.0015548841               0               0               0               0   0.00015309017       5.7384707   8.0063077e-07   1.3951513e-07
    0.086548926       1.0037707    0.0015473923               0               0               0               0   0.00015150458       5.7384414   8.0062621e-07   1.3951504e-07
    0.090240215       1.0037645    0.0015402843               0               0               0               0   0.00014994044         5.73841    8.006213e-07   1.3951495e-07
     0.09405476       1.0037589    0.0015333873               0               0               0               0   0.00014839072        5.738383   8.0061697e-07   1.3951485e-07
