#      distance             U_x             U_y             U_z wallShearStr... wallShearStr... wallShearStr...               p           omega               k             nut
  5.5511169e-17      0.99945443   3.5074574e-22               0               0               0               0    0.0045508434       82.608617   1.4478239e-05   1.7503878e-07
   0.0021021021      0.99943831   3.5074574e-22               0               0               0               0    0.0045665771       81.764437   1.4318663e-05   1.7489773e-07
   0.0042042042      0.99942218   3.5074574e-22               0               0               0               0    0.0045823108       80.920257   1.4159086e-05   1.7475667e-07
   0.0063063063      0.99940606   3.5074574e-22               0               0               0               0    0.0045980445       80.076078   1.3999509e-05   1.7461562e-07
   0.0084084084      0.99938994   3.5074574e-22               0               0               0               0    0.0046137783       79.231898   1.3839932e-05   1.7447456e-07
    0.010510511      0.99937382   3.5074574e-22               0               0               0               0     0.004629512       78.387718   1.3680355e-05   1.7433351e-07
    0.012612613      0.99935769   3.5074574e-22               0               0               0               0    0.0046452457       77.543539   1.3520778e-05   1.7419245e-07
    0.014714715      0.99934157   3.5074574e-22               0               0               0               0    0.0046609794       76.699359   1.3361201e-05    1.740514e-07
    0.016816817      0.99932545   3.5074574e-22               0               0               0               0    0.0046767131       75.855179   1.3201625e-05   1.7391034e-07
    0.018918919      0.99930932   3.5074574e-22               0               0               0               0    0.0046924468          75.011   1.3042048e-05   1.7376929e-07
    0.021021021       0.9992932   3.5074574e-22               0               0               0               0    0.0047081805        74.16682   1.2882471e-05   1.7362823e-07
    0.023123123      0.99926643   5.7197331e-22               0               0               0               0    0.0047346505       73.498565   1.2757365e-05   1.7349591e-07
    0.025225225      0.99923931   5.7197331e-22               0               0               0               0    0.0047614716       72.836063   1.2633386e-05   1.7336387e-07
    0.027327327       0.9992122   5.7197331e-22               0               0               0               0    0.0047882926        72.17356   1.2509408e-05   1.7323183e-07
    0.029429429      0.99918508   5.7197331e-22               0               0               0               0    0.0048151137       71.511058   1.2385429e-05   1.7309979e-07
    0.031531532      0.99915796   5.7197331e-22               0               0               0               0    0.0048419348       70.848556    1.226145e-05   1.7296775e-07
    0.033633634      0.99913084   5.7197331e-22               0               0               0               0    0.0048687558       70.186053   1.2137472e-05   1.7283571e-07
    0.035735736      0.99910372   5.7197331e-22               0               0               0               0    0.0048955769       69.523551   1.2013493e-05   1.7270367e-07
    0.037837838      0.99907661   5.7197331e-22               0               0               0               0    0.0049223979       68.861049   1.1889514e-05   1.7257163e-07
     0.03993994      0.99904949   5.7197331e-22               0               0               0               0     0.004949219       68.198546   1.1765536e-05   1.7243959e-07
    0.042042042      0.99902237   5.7197331e-22               0               0               0               0    0.0049760401       67.536044   1.1641557e-05   1.7230755e-07
    0.044144144      0.99899525   5.7197331e-22               0               0               0               0    0.0050028611       66.873542   1.1517578e-05   1.7217551e-07
    0.046246246      0.99896814   5.7197331e-22               0               0               0               0    0.0050296822       66.211039     1.13936e-05   1.7204347e-07
    0.048348348      0.99892713   1.0253158e-21               0               0               0               0    0.0050689889       65.614979   1.1282537e-05   1.7191557e-07
     0.05045045      0.99887931   1.0253158e-21               0               0               0               0    0.0051144258       65.051541   1.1177816e-05   1.7178969e-07
    0.052552553      0.99883148   1.0253158e-21               0               0               0               0    0.0051598626       64.488102   1.1073095e-05   1.7166382e-07
    0.054654655      0.99878366   1.0253158e-21               0               0               0               0    0.0052052995       63.924663   1.0968374e-05   1.7153794e-07
    0.056756757      0.99873584   1.0253158e-21               0               0               0               0    0.0052507364       63.361225   1.0863653e-05   1.7141207e-07
    0.058858859      0.99868801   1.0253158e-21               0               0               0               0    0.0052961732       62.797786   1.0758932e-05   1.7128619e-07
    0.060960961      0.99864019   1.0253158e-21               0               0               0               0    0.0053416101       62.234348   1.0654211e-05   1.7116032e-07
    0.063063063      0.99859237   1.0253158e-21               0               0               0               0     0.005387047       61.670909    1.054949e-05   1.7103444e-07
    0.065165165      0.99854455   1.0253158e-21               0               0               0               0    0.0054324838        61.10747   1.0444769e-05   1.7090857e-07
    0.067267267      0.99847106   1.5306154e-21               0               0               0               0    0.0055071368        60.59444   1.0349796e-05   1.7078634e-07
    0.069369369      0.99839323   1.5306154e-21               0               0               0               0    0.0055867493       60.089967   1.0256478e-05   1.7066473e-07
    0.071471471      0.99831539   1.5306154e-21               0               0               0               0    0.0056663618       59.585494    1.016316e-05   1.7054311e-07
    0.073573574      0.99823756   1.5306154e-21               0               0               0               0    0.0057459743       59.081021   1.0069842e-05    1.704215e-07
    0.075675676      0.99815972   1.5306154e-21               0               0               0               0    0.0058255868       58.576548   9.9765242e-06   1.7029989e-07
    0.077777778      0.99808189   1.5306154e-21               0               0               0               0    0.0059051993       58.072074   9.8832062e-06   1.7017828e-07
     0.07987988      0.99794886    3.789396e-21               0               0               0               0    0.0060214979       57.587461   9.7937162e-06   1.7005827e-07
    0.081981982      0.99776787    3.789396e-21               0               0               0               0    0.0061696734       57.120104   9.7075526e-06   1.6993964e-07
    0.084084084      0.99758688    3.789396e-21               0               0               0               0    0.0063178488       56.652746   9.6213889e-06   1.6982102e-07
    0.086186186       0.9974059    3.789396e-21               0               0               0               0    0.0064660242       56.185389   9.5352253e-06   1.6970239e-07
    0.088288288       0.9972245   7.7249975e-21               0               0               0               0    0.0066150282       55.718147   9.4490835e-06   1.6958378e-07
     0.09039039      0.99695496   7.7249975e-21               0               0               0               0    0.0069439339       55.275903   9.3677041e-06   1.6946677e-07
    0.092492492      0.99668542   7.7249975e-21               0               0               0               0    0.0072728395       54.833658   9.2863247e-06   1.6934976e-07
    0.094594595      0.99641588   7.7249975e-21               0               0               0               0    0.0076017452       54.391413   9.2049453e-06   1.6923275e-07
    0.096696697        0.834365   8.9062595e-20               0  -0.00054357203  -5.7520061e-07               0    0.0079682843       61.565373    9.159115e-06    3.308997e-07
    0.098798799      0.62032759   8.9062595e-20               0   -0.0012618146  -1.3352352e-06               0    0.0083469164       71.186709   9.1247079e-06   5.4455404e-07
      0.1009009      0.35479673   8.4226104e-20               0   -0.0021426035  -2.7070561e-06               0     0.008470562       83.294441   9.1683532e-06   8.0791295e-07
       0.103003     0.020607927   8.4226104e-20               0   -0.0032401209  -4.8945921e-06               0    0.0082542255       98.717365   9.3160682e-06   1.1375446e-06
     0.10510511   1.0765717e-16   1.5600361e-19               0   -0.0032619096   -6.442654e-06               0     0.007577549       99.668428   9.6931583e-06   1.1498644e-06
     0.10720721   1.0618806e-16    1.958906e-19               0   -0.0032126135  -7.7328759e-06               0    0.0069456071       99.668428   1.0333806e-05   1.1412182e-06
     0.10930931   1.0618806e-16    1.958906e-19               0   -0.0031627382  -8.7024784e-06               0    0.0064250677       99.668428   1.1343607e-05   1.1324044e-06
     0.11141141   1.0462206e-16   2.3128551e-19               0   -0.0031134608  -9.6700035e-06               0    0.0061149889       191.92496    0.0004525442   1.1235957e-06
     0.11351351   1.0307093e-16   2.7611563e-19               0   -0.0030648821  -1.0608521e-05               0    0.0058675468       314.57612    0.0010848774   1.1148683e-06
     0.11561562   1.0307093e-16   2.7611563e-19               0   -0.0030187628  -1.1423123e-05               0    0.0056902319       480.71797    0.0021248495   1.1064898e-06
     0.11771772   1.0157483e-16   3.0386229e-19               0   -0.0029744123  -1.1977469e-05               0    0.0055342945       608.83171    0.0031038905   1.0983773e-06
     0.11981982   1.0157483e-16   3.0386229e-19               0   -0.0029317936  -1.2276982e-05               0    0.0053992888       699.71011    0.0040232705   1.0905254e-06
     0.12192192   1.0013635e-16   3.0707102e-19               0   -0.0028917373  -1.2270299e-05               0     0.005282488       764.59551    0.0047768254   1.0830655e-06
     0.12402402   1.0013635e-16   3.0707102e-19               0   -0.0028524394  -1.2172981e-05               0    0.0051710756       821.78707    0.0054812967   1.0757216e-06
     0.12612613   9.8754112e-17      2.9982e-19               0   -0.0028160411  -1.1921219e-05               0    0.0050752314       857.84035    0.0059751747    1.068828e-06
     0.12822823   9.7417807e-17   2.8770208e-19               0   -0.0027800437  -1.1655206e-05               0    0.0049821023       891.53337    0.0064406457   1.0619967e-06
     0.13033033   9.7417807e-17   2.8770208e-19               0    -0.002746181  -1.1318101e-05               0    0.0049038095       913.03818    0.0067553357   1.0554971e-06
     0.13243243   9.6116888e-17   2.7091992e-19               0   -0.0027127926     -1.0968e-05               0    0.0048289789       932.25828    0.0070382274   1.0490689e-06
     0.13453453   9.6116888e-17   2.7091992e-19               0   -0.0026808703   -1.057773e-05               0    0.0047648487       944.41707    0.0072228407   1.0428616e-06
     0.13663664   9.4829048e-17    2.514298e-19               0   -0.0026493679  -1.0188952e-05               0    0.0047024386       954.82884    0.0073814706   1.0367138e-06
     0.13873874   9.4829048e-17    2.514298e-19               0    -0.002618905  -9.8038659e-06               0    0.0046442868       960.91587    0.0074757787   1.0307131e-06
     0.14084084   9.3544477e-17   2.3314564e-19               0   -0.0025887791  -9.4293757e-06               0    0.0045861179        965.9313     0.007553569   1.0247582e-06
     0.14294294   9.3544477e-17   2.3314564e-19               0   -0.0025595606  -9.0834052e-06               0     0.004527903       968.06236    0.0075868999   1.0189267e-06
     0.14504505   9.2259577e-17   2.1611201e-19               0   -0.0025305656  -8.7440262e-06               0    0.0044697001         969.701     0.007612526   1.0131255e-06
     0.14714715   9.2259577e-17   2.1611201e-19               0   -0.0025025106   -8.432372e-06               0    0.0044115478       969.26835    0.0076057432   1.0074515e-06
     0.14924925   9.0974873e-17   2.0011255e-19               0   -0.0024745126  -8.1221301e-06               0    0.0043534682       968.75494    0.0075976983   1.0017855e-06
     0.15135135   9.0974873e-17   2.0011255e-19               0   -0.0024476111  -7.8390619e-06               0    0.0042967856       966.68771    0.0075653702   9.9627137e-07
     0.15345345   9.0974873e-17   2.0011255e-19               0   -0.0024207095  -7.5559937e-06               0     0.004240103       964.62047     0.007533042   9.9075723e-07
     0.15555556   8.9692972e-17   1.8499654e-19               0   -0.0023948021  -7.2923734e-06               0    0.0041852478        961.7053    0.0074876854   9.8538633e-07
     0.15765766   8.9692972e-17   1.8499654e-19               0   -0.0023690827  -7.0324327e-06               0    0.0041307383       958.62971    0.0074398638   9.8004254e-07
     0.15975976   8.8418555e-17   1.7051082e-19               0   -0.0023440721  -6.7799361e-06               0    0.0040777987        955.2245     0.007387172   9.7480662e-07
     0.16186186   8.8418555e-17   1.7051082e-19               0   -0.0023196084  -6.5331812e-06               0    0.0040260698       951.56505    0.0073307235   9.6965391e-07
     0.16396396   8.7159733e-17   1.5588544e-19               0    -0.002295456  -6.2884622e-06               0    0.0039753768       947.84404    0.0072734495   9.6455223e-07
     0.16606607   8.7159733e-17   1.5588544e-19               0   -0.0022724191  -6.0510349e-06               0    0.0039283938       943.90252    0.0072132189   9.5963328e-07
     0.16816817   8.7159733e-17   1.5588544e-19               0   -0.0022493821  -5.8136075e-06               0    0.0038814108         939.961    0.0071529884   9.5471434e-07
     0.17027027   8.5933199e-17   1.4137767e-19               0   -0.0022274509  -5.5933793e-06               0    0.0038387321       936.00249    0.0070929882   9.4998059e-07
     0.17237237   8.5933199e-17   1.4137767e-19               0   -0.0022057962  -5.3774537e-06               0    0.0037971301       932.03973    0.0070330456   9.4529317e-07
     0.17447447   8.4725699e-17   1.2840481e-19               0   -0.0021845582  -5.1685518e-06               0    0.0037560807       928.11353    0.0069738446   9.4067772e-07
     0.17657658   8.4725699e-17   1.2840481e-19               0   -0.0021642596  -4.9754879e-06               0    0.0037162769       924.26978    0.0069163158   9.3622455e-07
     0.17867868   8.4725699e-17   1.2840481e-19               0   -0.0021439609   -4.782424e-06               0    0.0036764731       920.42603     0.006858787   9.3177139e-07
     0.18078078   8.3556597e-17   1.1612039e-19               0   -0.0021247673  -4.5999614e-06               0    0.0036365541       916.69476    0.0068033736   9.2752015e-07
     0.18288288   8.3556597e-17   1.1612039e-19               0   -0.0021059659  -4.4212629e-06               0    0.0035965942       913.00342    0.0067487112   9.2334062e-07
     0.18498498   8.2433107e-17   1.0432982e-19               0   -0.0020873002  -4.2437514e-06               0    0.0035568558       909.32806    0.0066943349   9.1918676e-07
     0.18708709   8.2433107e-17   1.0432982e-19               0   -0.0020700095  -4.0782734e-06               0    0.0035193629       905.81468    0.0066428583   9.1529322e-07
     0.18918919   8.2433107e-17   1.0432982e-19               0   -0.0020527188  -3.9127953e-06               0      0.00348187       902.30131    0.0065913816   9.1139967e-07
     0.19129129    8.136134e-17    9.305447e-20               0   -0.0020359715  -3.7520207e-06               0     0.003446089       898.86176    0.0065411683   9.0761247e-07
     0.19339339    8.136134e-17    9.305447e-20               0   -0.0020201892  -3.5995986e-06               0    0.0034133481       895.55332    0.0064931984    9.040141e-07
      0.1954955    8.136134e-17    9.305447e-20               0    -0.002004407  -3.4471765e-06               0    0.0033806073       892.24488    0.0064452286   9.0041573e-07
      0.1975976   8.0347523e-17   8.2355425e-20               0   -0.0019894422  -3.3020238e-06               0    0.0033505293       889.07176    0.0063994663    8.969824e-07
      0.1996997   8.0347523e-17   8.2355425e-20               0   -0.0019751549  -3.1628948e-06               0    0.0033226579       886.01078    0.0063555332   8.9368583e-07
      0.2018018   8.0347523e-17   8.2355425e-20               0   -0.0019608677  -3.0237658e-06               0    0.0032947865        882.9498    0.0063116002   8.9038926e-07
      0.2039039   7.9397007e-17   7.2329995e-20               0   -0.0019475296  -2.8928516e-06               0     0.003270058       880.06852    0.0062704963   8.8728994e-07
     0.20600601   7.9397007e-17   7.2329995e-20               0   -0.0019347094  -2.7664189e-06               0    0.0032470443       877.28527    0.0062309357   8.8429823e-07
     0.20810811   7.9397007e-17   7.2329995e-20               0   -0.0019218892  -2.6399863e-06               0    0.0032240305       874.50202    0.0061913751   8.8130652e-07
     0.21021021   7.8514542e-17   6.2898735e-20               0   -0.0019100107  -2.5212913e-06               0    0.0032037618       871.91147    0.0061547653   8.7851591e-07
     0.21231231   7.8514542e-17   6.2898735e-20               0   -0.0018986215  -2.4066162e-06               0    0.0031849192       869.42104    0.0061196886   8.7582977e-07
     0.21441441   7.8514542e-17   6.2898735e-20               0   -0.0018872323  -2.2919411e-06               0    0.0031660766       866.93061    0.0060846118   8.7314363e-07
     0.21651652   7.7704547e-17   5.4078845e-20               0   -0.0018766353  -2.1844028e-06               0    0.0031483737        864.6106    0.0060520854   8.7063081e-07
     0.21861862   7.7704547e-17   5.4078845e-20               0   -0.0018666184  -2.0820891e-06               0    0.0031315051       862.41535     0.006021426   8.6824489e-07
     0.22072072   7.7704547e-17   5.4078845e-20               0   -0.0018566014  -1.9797754e-06               0    0.0031146365       860.22009    0.0059907667   8.6585896e-07
     0.22282282   7.6968338e-17   4.6054376e-20               0   -0.0018470983   -1.882558e-06               0    0.0030983234       858.13973    0.0059617939   8.6358782e-07
     0.22492492   7.6968338e-17   4.6054376e-20               0   -0.0018383599  -1.7929235e-06               0    0.0030828371        856.2303    0.0059353308   8.6148747e-07
     0.22702703   7.6968338e-17   4.6054376e-20               0   -0.0018296215  -1.7032889e-06               0    0.0030673507       854.32087    0.0059088676   8.5938711e-07
     0.22912913   7.6304324e-17    3.880574e-20               0   -0.0018210335  -1.6151858e-06               0    0.0030521868       852.44588    0.0058829021   8.5732096e-07
     0.23123123   7.6304324e-17    3.880574e-20               0   -0.0018134612  -1.5374241e-06               0    0.0030392002       850.80348    0.0058602966   8.5548577e-07
     0.23333333   7.6304324e-17    3.880574e-20               0   -0.0018058888  -1.4596624e-06               0    0.0030262136       849.16108    0.0058376912   8.5365059e-07
