#      distance             U_x             U_y             U_z wallShearStr... wallShearStr... wallShearStr...               p           omega               k             nut
    0.034013023      0.99913924   5.1433294e-06               0               0               0               0    0.0048574722       69.038229   1.1919952e-05   1.7265711e-07
    0.056204344      0.99877913   9.2198999e-06               0               0               0               0    0.0052195858       62.950658   1.0786185e-05   1.7134341e-07
    0.072112662      0.99829604   1.3763683e-05               0               0               0               0    0.0056586362       59.102386   1.0073265e-05   1.7043751e-07
    0.083516877       0.9977951   3.4075212e-05               0               0               0               0    0.0062259178       56.573618   9.6065504e-06   1.6980617e-07
     0.09169223      0.99665635   6.9465141e-05               0               0               0               0    0.0070014436       54.867315   9.2924709e-06   1.6936259e-07
    0.097552904      0.99563161   0.00080087349               0  -1.3873192e-06  -1.4680425e-09               0    0.0083618584       53.720194   9.0779922e-06   1.6945899e-07
     0.10156632      0.98099249   0.00075738254               0  -4.1315291e-06  -5.6405954e-09               0    0.0087636966        99.64936     9.13235e-06   8.2086114e-08
     0.10474707      0.96808068    0.0014028241               0  -5.4260982e-06  -1.0264264e-08               0    0.0077174398       99.668428   9.5183215e-06   4.4798445e-08
     0.10802554      0.95487004    0.0017614981               0  -5.2982674e-06  -1.3456956e-08               0    0.0065928316       99.668428   1.0337604e-05   3.2892255e-08
     0.11140473      0.94078815    0.0020797781               0  -5.1662246e-06  -1.6039717e-08               0    0.0060693026        99.82091   1.3442538e-05   3.0182405e-08
     0.11488774      0.92683998    0.0024829019               0  -5.0353359e-06  -1.8485644e-08               0    0.0057323054       467.18994    0.0017675609   3.1759247e-06
     0.11847776      0.91338669     0.002732407               0  -4.9096834e-06  -2.0053128e-08               0    0.0054727645        658.5367    0.0035110271   5.3244921e-06
     0.12217807      0.90045152    0.0027612607               0  -4.7901284e-06  -2.0339642e-08               0    0.0052641734       782.34964    0.0049551964   6.3250742e-06
     0.12599207      0.88802207    0.0026960577               0  -4.6763228e-06  -1.9807008e-08               0    0.0050745843       862.94614    0.0060286809   6.9764076e-06
     0.12992323      0.87600568    0.0025870903               0  -4.5674427e-06  -1.8887719e-08               0    0.0049120134       913.95537     0.006762441   7.3886251e-06
     0.13397518      0.86430749    0.0024361808               0  -4.4622899e-06  -1.7723256e-08               0    0.0047773179       944.60243    0.0072235576   7.6362797e-06
     0.13815161       0.8527269    0.0022609207               0  -4.3594983e-06  -1.6445387e-08               0      0.00466103       961.54286    0.0074849715   7.4785666e-06
     0.14245635      0.84117571    0.0020965048               0  -4.2581367e-06  -1.5204391e-08               0    0.0045427417       969.15868    0.0076040085   7.2088817e-06
     0.14689334      0.82962156    0.0019433341               0  -4.1578754e-06  -1.4053729e-08               0    0.0044189948       970.40509    0.0076235795   6.8881032e-06
     0.15146665      0.81806918    0.0017994629               0  -4.0587156e-06  -1.2981091e-08               0    0.0042935417       967.30603    0.0075749642    6.548143e-06
     0.15618046        0.806542    0.0016635359               0  -3.9608551e-06  -1.1971552e-08               0    0.0041686291        961.2751     0.007480802   6.2094154e-06
     0.16103908      0.79508212    0.0015332766               0  -3.8646648e-06  -1.1000339e-08               0    0.0040453776       953.30447    0.0073572583   5.8848177e-06
     0.16604698      0.78376247    0.0014017615               0  -3.7708259e-06   -1.004367e-08               0    0.0039258919        944.1034    0.0072159219   5.5827343e-06
     0.17120873      0.77273317    0.0012713039               0  -3.6798254e-06  -9.1207878e-09               0    0.0038181347       934.24086    0.0070659467    5.312646e-06
     0.17652907      0.76187502    0.0011546487               0   -3.591778e-06  -8.2627471e-09               0    0.0037184852       924.34799    0.0069170923   5.0692821e-06
     0.18201286      0.75136216    0.0010441841               0  -3.5072054e-06  -7.4586353e-09               0    0.0036135989       914.48984    0.0067703364   4.8578705e-06
     0.18766512      0.74125945   0.00093816024               0  -3.4267448e-06  -6.6913171e-09               0    0.0035068487       904.79739    0.0066275815   4.6739784e-06
     0.19349103      0.73162185   0.00083676944               0  -3.3507538e-06  -5.9608357e-09               0    0.0034089276       895.31011     0.006489322   4.5149448e-06
     0.19949593      0.72250535   0.00074056091               0  -3.2795456e-06  -5.2703653e-09               0    0.0033226234       886.18158    0.0063576664   4.3800951e-06
     0.20568532      0.71395807    0.0006504097               0  -3.2133841e-06  -4.6221448e-09               0    0.0032472832       877.55754    0.0062345265   4.2689183e-06
     0.21206485      0.70602271   0.00056560141               0  -3.1524852e-06  -4.0155425e-09               0    0.0031850496       869.54381    0.0061211803   4.1805892e-06
     0.21864039      0.69873904   0.00048629072               0  -3.0969878e-06  -3.4529188e-09               0    0.0031311796        862.2128    0.0060184014   4.1144821e-06
     0.22541793      0.69211886   0.00041413265               0   -3.046872e-06   -2.940002e-09               0     0.003077919       855.60222    0.0059264688   4.0695143e-06
     0.23240371      0.68614788   0.00034895108               0  -3.0019517e-06  -2.4789836e-09               0    0.0030298106       849.71384    0.0058451757   4.0441987e-06
      0.2396041      0.68079945   0.00029067221               0  -2.9619403e-06  -2.0704741e-09               0     0.002990299       844.52088    0.0057739489   4.0368316e-06
      0.2470257      0.67603745   0.00024024083               0  -2.9264868e-06  -1.7162826e-09               0    0.0029576951        839.9759    0.0057119682    4.045536e-06
     0.25467531      0.67181515   0.00019751962               0  -2.8951921e-06  -1.4147243e-09               0    0.0029304617       836.01682    0.0056582497   4.0682679e-06
     0.26255994      0.66808251    0.0001613342               0  -2.8676583e-06  -1.1593496e-09               0    0.0029094943       832.57609    0.0056117704   4.1029295e-06
      0.2706868      0.66480024    0.0001305899               0  -2.8435264e-06   -9.440621e-10               0    0.0028934639       829.59451    0.0055716483   4.1474705e-06
     0.27906334      0.66192528   0.00010520697               0  -2.8224281e-06  -7.6520016e-10               0    0.0028745467       827.02244    0.0055371523   4.2020888e-06
     0.28769723      0.65940101   8.4347254e-05               0  -2.8039377e-06  -6.1978998e-10               0     0.002851709       824.79821    0.0055074074   4.2654368e-06
     0.29659637      0.65716519   6.8025194e-05               0  -2.7875922e-06  -5.0641803e-10               0    0.0028294253       822.84834    0.0054813972   4.3354776e-06
     0.30576892      0.65515572   5.6547922e-05               0  -2.7729353e-06  -4.2375928e-10               0    0.0028087898       821.09441    0.0054580533   4.4098779e-06
     0.31522326      0.65331556   4.9053391e-05               0  -2.7595722e-06  -3.6581674e-10               0    0.0027899257       819.47058    0.0054364852   4.4863281e-06
     0.32496807       0.6516086   4.3570966e-05               0  -2.7472136e-06  -3.2483204e-10               0    0.0027744081       817.92874    0.0054160454   4.5634395e-06
     0.33501226      0.65000802   4.0141846e-05               0  -2.7356293e-06  -2.9823894e-10               0    0.0027546816       816.43473    0.0053962764   4.6402021e-06
     0.34536503      0.64847856   3.9205841e-05               0  -2.7245748e-06  -2.8593937e-10               0    0.0027259798       814.95779     0.005376769   4.7155023e-06
     0.35603587      0.64698379   3.9960426e-05               0  -2.7138045e-06  -2.8521587e-10               0    0.0026950833        813.4699    0.0053571525   4.7882311e-06
     0.36703454      0.64549614   4.1918123e-05               0  -2.7031183e-06  -2.9232243e-10               0      0.00266629       811.94928    0.0053371419   4.8575142e-06
     0.37837111      0.64399617   4.4555515e-05               0  -2.6923805e-06  -3.0384459e-10               0    0.0026394923       810.37962    0.0053165251   4.9226395e-06
     0.39005597      0.64247443   4.7298905e-05               0  -2.6815109e-06  -3.1735184e-10               0    0.0026130604       808.75263    0.0052951977   4.9830433e-06
     0.40209982      0.64092413   5.0286426e-05               0  -2.6704513e-06  -3.3310053e-10               0     0.002581871       807.06503    0.0052731211   5.0384014e-06
     0.41451368      0.63933512    5.403911e-05               0  -2.6591161e-06  -3.5261603e-10               0    0.0025452864       805.31344    0.0052502562   5.0882005e-06
     0.42730893      0.63768558   5.8417414e-05               0  -2.6473829e-06  -3.7515669e-10               0    0.0025082757       803.48702    0.0052264678   5.1340301e-06
     0.44049728      0.63595939   6.2686301e-05               0  -2.6351573e-06  -3.9747498e-10               0     0.002473259        801.5752    0.0052016247   5.1755114e-06
      0.4540908      0.63415583   6.6316866e-05               0  -2.6224236e-06  -4.1696879e-10               0    0.0024396158       799.57861    0.0051757433     5.21191e-06
     0.46810195      0.63228185   6.9419814e-05               0  -2.6092147e-06  -4.3329023e-10               0    0.0024015447       797.50657    0.0051489526   5.2427885e-06
     0.48254356      0.63034098   7.2104591e-05               0  -2.5955636e-06  -4.4661013e-10               0    0.0023581208       795.36812    0.0051213759   5.2680544e-06
     0.49742885      0.62833612    7.415018e-05               0  -2.5815113e-06  -4.5586577e-10               0     0.002315057       793.17061    0.0050931152   5.2880277e-06
     0.51277145      0.62627953   7.5156716e-05               0  -2.5671449e-06  -4.5956648e-10               0    0.0022766874       790.92646    0.0050643354   5.3034628e-06
     0.52858541      0.62419188   7.5123381e-05               0  -2.5525876e-06  -4.5785563e-10               0    0.0022396032       788.65501    0.0050352887   5.3151786e-06
     0.54488522      0.62208866   7.4523702e-05               0  -2.5379392e-06  -4.5254182e-10               0    0.0021982017       786.37219     0.005006181   5.3240086e-06
     0.56168579      0.61997456   7.3598884e-05               0  -2.5232457e-06  -4.4514569e-10               0    0.0021546753       784.08333     0.004977081   5.3308918e-06
     0.57900252      0.61785073   7.2392423e-05               0  -2.5085319e-06  -4.3606149e-10               0     0.002113469       781.78928    0.0049480002   5.3363428e-06
     0.59685126      0.61572399   7.0842169e-05               0  -2.4938373e-06  -4.2545683e-10               0     0.002074798       779.49466    0.0049189977   5.3406412e-06
     0.61524836      0.61360225   6.9156659e-05               0  -2.4792021e-06  -4.1414823e-10               0    0.0020339422       777.20682    0.0048901659   5.3438691e-06
     0.63421066      0.61148612   6.7549169e-05               0  -2.4646436e-06  -4.0270648e-10               0    0.0019897693       774.92918    0.0048615468   5.3459606e-06
     0.65375553      0.60937655   6.5775442e-05               0  -2.4501794e-06  -3.9059657e-10               0    0.0019475298        772.6638    0.0048331653   5.3469897e-06
     0.67390086      0.60728153   6.3731163e-05               0   -2.435851e-06  -3.7744679e-10               0    0.0019075505        770.4166    0.0048050939   5.3472124e-06
     0.69466511      0.60520871   6.1605393e-05               0  -2.4216969e-06  -3.6392502e-10               0     0.001865927       768.19371    0.0047774067   5.3468245e-06
     0.71606728       0.6031577   5.9587066e-05               0  -2.4077285e-06  -3.5055116e-10               0    0.0018221827       765.99569     0.004750108   5.3458752e-06
     0.73812698       0.6011289   5.7465799e-05               0  -2.3939531e-06  -3.3709284e-10               0    0.0017808665        763.8222     0.004723191   5.3444739e-06
     0.76086441      0.59912694   5.5299444e-05               0  -2.3803821e-06  -3.2383442e-10               0    0.0017402164       761.67375    0.0046966594   5.3429249e-06
     0.78430038      0.59714955   5.3383133e-05               0  -2.3670029e-06  -3.1156655e-10               0     0.001696338       759.54734    0.0046704736     5.34125e-06
     0.80845637      0.59518992    5.163687e-05               0  -2.3537866e-06  -3.0021529e-10               0    0.0016522484       757.43759    0.0046445653   5.3392996e-06
     0.83335448      0.59324743   4.9880592e-05               0  -2.3407241e-06   -2.892177e-10               0    0.0016098904       755.34392     0.004618926   5.3370229e-06
     0.85901753      0.59132529   4.8162793e-05               0  -2.3278205e-06  -2.7861347e-10               0    0.0015662446       753.26975    0.0045935953   5.3343869e-06
       0.885469      0.58942123   4.6605966e-05               0  -2.3150727e-06   -2.684522e-10               0     0.001520106       751.21482    0.0045685684   5.3312895e-06
     0.91273313      0.58753521   4.4957261e-05               0  -2.3024865e-06  -2.5825996e-10               0    0.0014763851        749.1794    0.0045438464   5.3278119e-06
     0.94083488      0.58567371   4.3255062e-05               0  -2.2900793e-06  -2.4815632e-10               0      0.00143266       747.16845    0.0045194873   5.3240761e-06
     0.96979998      0.58383484   4.1761616e-05               0  -2.2778469e-06  -2.3866243e-10               0    0.0013852022       745.18013    0.0044954667   5.3200631e-06
     0.99965496      0.58201385   4.0292465e-05               0  -2.2657728e-06  -2.2960385e-10               0    0.0013394703       743.20911    0.0044717182   5.3158241e-06
      1.0304272      0.58021288   3.8824054e-05               0  -2.2538515e-06  -2.2091787e-10               0    0.0012944113       741.25583    0.0044482452    5.311438e-06
      1.0621447      0.57842952   3.7549254e-05               0  -2.2420722e-06   -2.128236e-10               0    0.0012455965       739.31918    0.0044250329   5.3067772e-06
      1.0948368       0.5766604   3.6277094e-05               0  -2.2304261e-06  -2.0498153e-10               0    0.0011978105        737.3974    0.0044020587   5.3017919e-06
      1.1285332      0.57490991   3.4949448e-05               0  -2.2189223e-06  -1.9721086e-10               0    0.0011508571       735.49421    0.0043793654   5.2965846e-06
      1.1632648      0.57317856    3.374431e-05               0  -2.2075656e-06  -1.8974221e-10               0    0.0011007001       733.61101    0.0043569678   5.2911203e-06
      1.1990635      0.57146434   3.2537269e-05               0  -2.1963534e-06  -1.8249418e-10               0    0.0010516395       731.74571    0.0043348396   5.2854376e-06
       1.235962       0.5697696    3.133428e-05               0  -2.1852845e-06  -1.7551348e-10               0    0.0010028638       729.89865     0.004312983   5.2796437e-06
      1.2739941      0.56809148    3.028293e-05               0  -2.1743477e-06  -1.6900634e-10               0   0.00095075261       728.06736    0.0042913674   5.2736632e-06
      1.3131947      0.56642683   2.9240523e-05               0  -2.1635311e-06  -1.6277807e-10               0   0.00089957963       726.24961     0.004269965   5.2674629e-06
      1.3535996      0.56477793   2.8202467e-05               0  -2.1528367e-06   -1.566869e-10               0    0.0008483287       724.44749    0.0042487993   5.2610916e-06
      1.3952458      0.56314508   2.7220276e-05               0  -2.1422692e-06  -1.5078738e-10               0   0.00079522085       722.66209    0.0042278817   5.2545366e-06
      1.4381715      0.56152859   2.6238282e-05               0  -2.1318279e-06  -1.4510077e-10               0   0.00074250309       720.89352    0.0042072121   5.2478319e-06
       1.482416      0.55992754   2.5329737e-05               0  -2.1215067e-06   -1.396842e-10               0   0.00068849712       719.14017    0.0041867703   5.2409905e-06
      1.5280198      0.55834014   2.4448217e-05               0  -2.1112988e-06  -1.3450744e-10               0   0.00063464998       717.40011    0.0041665326   5.2340145e-06
      1.5750246      0.55676697   2.3592666e-05               0  -2.1012005e-06  -1.2954313e-10               0   0.00058033429       715.67393     0.004146505   5.2269098e-06
      1.6234735      0.55520667    2.279398e-05               0  -2.0912088e-06  -1.2479149e-10               0   0.00052460352       713.96115    0.0041266805   5.2196478e-06
      1.6734109      0.55365994   2.1993403e-05               0  -2.0813203e-06  -1.2022129e-10               0   0.00047019162       712.26256    0.0041070674   5.2122508e-06
      1.7248825      0.55212485   2.1254951e-05               0  -2.0715334e-06   -1.159114e-10               0   0.00041502879       710.57587    0.0040876379   5.2047467e-06
      1.7779355       0.5506039   2.0564586e-05               0  -2.0618191e-06   -1.119108e-10               0   0.00036262018       708.90289    0.0040684121   5.1970536e-06
      1.8326183      0.54907601     1.99446e-05               0  -2.0522221e-06  -1.0806467e-10               0   0.00030780049       707.22484    0.0040491735   5.1893276e-06
      1.8889812       0.5476094   1.9210587e-05               0  -2.0426221e-06  -1.4278056e-10               0   0.00027489548       705.60241    0.0040306085   5.1814724e-06
      1.9470756      0.54601253   4.9655479e-05               0  -2.0330461e-06  -2.7156196e-10               0    0.0001637377       703.86327    0.0040107803    5.172922e-06
      2.0069548      0.54461808   9.3552789e-05               0  -2.0227988e-06  -4.1374937e-10               0   0.00036021407       702.32839    0.0039933057   5.1610635e-06
