#      distance             U_x             U_y             U_z wallShearStr... wallShearStr... wallShearStr...               p           omega               k             nut
  5.5511169e-17      0.99945182   3.5133602e-22               0               0               0               0    0.0045147943       82.608575   1.4478233e-05    1.750388e-07
   0.0021021021      0.99943565   3.5133602e-22               0               0               0               0    0.0045305276       81.764395   1.4318656e-05   1.7489775e-07
   0.0042042042      0.99941948   3.5133602e-22               0               0               0               0    0.0045462609       80.920214   1.4159079e-05    1.747567e-07
   0.0063063063      0.99940331   3.5133602e-22               0               0               0               0    0.0045619941       80.076034   1.3999502e-05   1.7461564e-07
   0.0084084084      0.99938714   3.5133602e-22               0               0               0               0    0.0045777274       79.231853   1.3839926e-05   1.7447459e-07
    0.010510511      0.99937096   3.5133602e-22               0               0               0               0    0.0045934606       78.387673   1.3680349e-05   1.7433353e-07
    0.012612613      0.99935479   3.5133602e-22               0               0               0               0    0.0046091939       77.543492   1.3520772e-05   1.7419248e-07
    0.014714715      0.99933862   3.5133602e-22               0               0               0               0    0.0046249271       76.699312   1.3361195e-05   1.7405143e-07
    0.016816817      0.99932245   3.5133602e-22               0               0               0               0    0.0046406604       75.855131   1.3201618e-05   1.7391037e-07
    0.018918919      0.99930627   3.5133602e-22               0               0               0               0    0.0046563936       75.010951   1.3042041e-05   1.7376932e-07
    0.021021021       0.9992901   3.5133602e-22               0               0               0               0    0.0046721269        74.16677   1.2882464e-05   1.7362826e-07
    0.023123123      0.99926329    5.725951e-22               0               0               0               0    0.0046986131       73.498515   1.2757358e-05   1.7349594e-07
    0.025225225      0.99923612    5.725951e-22               0               0               0               0    0.0047254509       72.836012   1.2633379e-05    1.733639e-07
    0.027327327      0.99920896    5.725951e-22               0               0               0               0    0.0047522888       72.173509   1.2509401e-05   1.7323186e-07
    0.029429429      0.99918179    5.725951e-22               0               0               0               0    0.0047791266       71.511006   1.2385422e-05   1.7309982e-07
    0.031531532      0.99915463    5.725951e-22               0               0               0               0    0.0048059644       70.848503   1.2261443e-05   1.7296779e-07
    0.033633634      0.99912747    5.725951e-22               0               0               0               0    0.0048328022          70.186   1.2137465e-05   1.7283575e-07
    0.035735736       0.9991003    5.725951e-22               0               0               0               0    0.0048596401       69.523497   1.2013486e-05   1.7270371e-07
    0.037837838      0.99907314    5.725951e-22               0               0               0               0    0.0048864779       68.860995   1.1889507e-05   1.7257167e-07
     0.03993994      0.99904597    5.725951e-22               0               0               0               0    0.0049133157       68.198492   1.1765529e-05   1.7243963e-07
    0.042042042      0.99901881    5.725951e-22               0               0               0               0    0.0049401535       67.535989    1.164155e-05   1.7230759e-07
    0.044144144      0.99899164    5.725951e-22               0               0               0               0    0.0049669914       66.873486   1.1517571e-05   1.7217556e-07
    0.046246246      0.99896448    5.725951e-22               0               0               0               0    0.0049938292       66.210983   1.1393593e-05   1.7204352e-07
    0.048348348      0.99892343   1.0259059e-21               0               0               0               0    0.0050331761       65.614923    1.128253e-05   1.7191561e-07
     0.05045045      0.99887557   1.0259059e-21               0               0               0               0    0.0050786646       65.051484   1.1177809e-05   1.7178974e-07
    0.052552553       0.9988277   1.0259059e-21               0               0               0               0    0.0051241532       64.488045   1.1073088e-05   1.7166387e-07
    0.054654655      0.99877984   1.0259059e-21               0               0               0               0    0.0051696417       63.924607   1.0968368e-05   1.7153799e-07
    0.056756757      0.99873198   1.0259059e-21               0               0               0               0    0.0052151303       63.361168   1.0863647e-05   1.7141212e-07
    0.058858859      0.99868411   1.0259059e-21               0               0               0               0    0.0052606188       62.797729   1.0758926e-05   1.7128624e-07
    0.060960961      0.99863625   1.0259059e-21               0               0               0               0    0.0053061074       62.234291   1.0654205e-05   1.7116037e-07
    0.063063063      0.99858838   1.0259059e-21               0               0               0               0    0.0053515959       61.670852   1.0549484e-05    1.710345e-07
    0.065165165      0.99854052   1.0259059e-21               0               0               0               0    0.0053970845       61.107413   1.0444763e-05   1.7090862e-07
    0.067267267      0.99846698   1.5330028e-21               0               0               0               0    0.0054718395       60.594384   1.0349791e-05   1.7078639e-07
    0.069369369      0.99838908   1.5330028e-21               0               0               0               0    0.0055515627       60.089911   1.0256473e-05   1.7066478e-07
    0.071471471      0.99831118   1.5330028e-21               0               0               0               0    0.0056312859       59.585439   1.0163155e-05   1.7054317e-07
    0.073573574      0.99823328   1.5330028e-21               0               0               0               0    0.0057110091       59.080966   1.0069837e-05   1.7042156e-07
    0.075675676      0.99815538   1.5330028e-21               0               0               0               0    0.0057907323       58.576494   9.9765192e-06   1.7029995e-07
    0.077777778      0.99807748   1.5330028e-21               0               0               0               0    0.0058704555       58.072022   9.8832014e-06   1.7017834e-07
     0.07987988      0.99794449    3.786117e-21               0               0               0               0    0.0059869145       57.587409   9.7937116e-06   1.7005833e-07
    0.081981982      0.99776363    3.786117e-21               0               0               0               0    0.0061352936       57.120053   9.7075481e-06   1.6993971e-07
    0.084084084      0.99758278    3.786117e-21               0               0               0               0    0.0062836727       56.652698   9.6213846e-06   1.6982108e-07
    0.086186186      0.99740192    3.786117e-21               0               0               0               0    0.0064320517       56.185342   9.5352211e-06   1.6970246e-07
    0.088288288      0.99722066   7.7175717e-21               0               0               0               0    0.0065812601       55.718101   9.4490794e-06   1.6958384e-07
     0.09039039      0.99695094   7.7175717e-21               0               0               0               0    0.0069105198       55.275792   9.3676745e-06   1.6946656e-07
    0.092492492      0.99668122   7.7175717e-21               0               0               0               0    0.0072397796       54.833484   9.2862696e-06   1.6934927e-07
    0.094594595       0.9964115   7.7175717e-21               0               0               0               0    0.0075690394       54.391175   9.2048647e-06   1.6923199e-07
    0.096696697      0.83436107    9.080401e-20               0  -0.00054356911  -5.7767181e-07               0    0.0079360872       61.565126   9.1590124e-06   3.3089841e-07
    0.098798799       0.6203243    9.080401e-20               0   -0.0012618078  -1.3409717e-06               0    0.0083152776       71.186472   9.1245845e-06   5.4455213e-07
      0.1009009      0.35479464   8.4598243e-20               0   -0.0021425909  -2.7157983e-06               0     0.008439598       83.294276   9.1682261e-06   8.0791033e-07
       0.103003     0.020607805   8.4598243e-20               0   -0.0032400998  -4.9059941e-06               0    0.0082240915       98.717356   9.3159604e-06   1.1375411e-06
     0.10510511    1.076567e-16   1.5619932e-19               0   -0.0032618852  -6.4511342e-06               0    0.0075482717       99.668428   9.6930439e-06   1.1498602e-06
     0.10720721   1.0618755e-16   1.9601823e-19               0   -0.0032125872  -7.7388872e-06               0    0.0069172641       99.668428   1.0333684e-05   1.1412136e-06
     0.10930931   1.0618755e-16   1.9601823e-19               0   -0.0031627113  -8.7072384e-06               0    0.0063977721       99.668428   1.1343479e-05   1.1323997e-06
     0.11141141   1.0462154e-16   2.3138614e-19               0   -0.0031134339  -9.6740118e-06               0    0.0060885472       191.92517   0.00045254262   1.1235909e-06
     0.11351351   1.0307041e-16   2.7619327e-19               0   -0.0030648554  -1.0611917e-05               0    0.0058418521       314.57662    0.0010848738   1.1148636e-06
     0.11561562   1.0307041e-16   2.7619327e-19               0   -0.0030187365  -1.1426036e-05               0    0.0056650062       480.71888    0.0021248428    1.106485e-06
     0.11771772   1.0157432e-16   3.0392355e-19               0   -0.0029743865  -1.1979935e-05               0    0.0055096306       608.83294    0.0031038808   1.0983726e-06
     0.11981982   1.0157432e-16   3.0392355e-19               0   -0.0029317683  -1.2279039e-05               0    0.0053752776        699.7116    0.0040232582   1.0905207e-06
     0.12192192   1.0013585e-16   3.0711342e-19               0   -0.0028917122  -1.2272005e-05               0    0.0052592383       764.59716    0.0047768106   1.0830608e-06
     0.12402402   1.0013585e-16   3.0711342e-19               0   -0.0028524144  -1.2174355e-05               0    0.0051486198       821.78884    0.0054812793   1.0757169e-06
     0.12612613   9.8753606e-17   2.9985124e-19               0   -0.0028160164  -1.1922375e-05               0    0.0050532668       857.84217     0.005975155   1.0688233e-06
     0.12822823   9.7417312e-17   2.8772433e-19               0   -0.0027800193  -1.1656148e-05               0    0.0049605717       891.53524    0.0064406239    1.061992e-06
     0.13033033   9.7417312e-17   2.8772433e-19               0   -0.0027461572   -1.131885e-05               0    0.0048823993       913.04009    0.0067553124   1.0554925e-06
     0.13243243    9.611642e-17   2.7093225e-19               0   -0.0027127695   -1.096856e-05               0    0.0048076767       932.26022    0.0070382028   1.0490644e-06
     0.13453453    9.611642e-17   2.7093225e-19               0    -0.002680848  -1.0578116e-05               0    0.0047436166       944.41903    0.0072228152   1.0428573e-06
     0.13663664   9.4828606e-17   2.5143388e-19               0   -0.0026493463  -1.0189181e-05               0    0.0046813255       954.83082    0.0073814443   1.0367096e-06
     0.13873874   9.4828606e-17   2.5143388e-19               0   -0.0026188839   -9.803978e-06               0    0.0046234138       960.91786    0.0074757519   1.0307089e-06
     0.14084084   9.3544047e-17   2.3314498e-19               0   -0.0025887585  -9.4293887e-06               0    0.0045655087        965.9333    0.0075535417   1.0247541e-06
     0.14294294   9.3544047e-17   2.3314498e-19               0   -0.0025595404  -9.0833662e-06               0    0.0045076216       968.06437    0.0075868724   1.0189226e-06
     0.14504505   9.2259157e-17      2.1611e-19               0   -0.0025305457  -8.7439431e-06               0    0.0044497251       969.70301    0.0076124982   1.0131215e-06
     0.14714715   9.2259157e-17      2.1611e-19               0   -0.0025024911  -8.4322788e-06               0     0.004391789       969.27036    0.0076057153   1.0074476e-06
     0.14924925   9.0974472e-17   2.0011073e-19               0   -0.0024744935  -8.1220269e-06               0    0.0043339148       968.75696    0.0075976705   1.0017816e-06
     0.15135135   9.0974472e-17   2.0011073e-19               0   -0.0024475926  -7.8389502e-06               0    0.0042772343       966.68975    0.0075653427   9.9626758e-07
     0.15345345   9.0974472e-17   2.0011073e-19               0   -0.0024206917  -7.5558734e-06               0    0.0042205539       964.62254     0.007533015   9.9075354e-07
     0.15555556   8.9692601e-17   1.8499359e-19               0    -0.002394785  -7.2922367e-06               0    0.0041655841       961.70741    0.0074876592   9.8538278e-07
     0.15765766   8.9692601e-17   1.8499359e-19               0   -0.0023690664   -7.032278e-06               0     0.004110938       958.63187    0.0074398386   9.8003913e-07
     0.15975976   8.8418224e-17   1.7050664e-19               0   -0.0023440566  -6.7797498e-06               0    0.0040578805       955.22672    0.0073871478   9.7480335e-07
     0.16186186   8.8418224e-17   1.7050664e-19               0   -0.0023195936  -6.5329529e-06               0    0.0040060485       951.56734    0.0073307006   9.6965078e-07
     0.16396396   8.7159433e-17   1.5587645e-19               0   -0.0022954419  -6.2881935e-06               0    0.0039552832        947.8464    0.0072734279   9.6454922e-07
     0.16606607   8.7159433e-17   1.5587645e-19               0   -0.0022724054  -6.0507314e-06               0    0.0039083385       943.90495    0.0072131987   9.5963037e-07
     0.16816817   8.7159433e-17   1.5587645e-19               0    -0.002249369  -5.8132692e-06               0    0.0038613938        939.9635    0.0071529695   9.5471153e-07
     0.17027027   8.5932917e-17   1.4136807e-19               0   -0.0022274381  -5.5930468e-06               0    0.0038188486       936.00504    0.0070929704   9.4997784e-07
     0.17237237   8.5932917e-17   1.4136807e-19               0   -0.0022057838  -5.3771372e-06               0    0.0037774041       932.04233    0.0070330289   9.4529047e-07
     0.17447447   8.4725428e-17   1.2839766e-19               0    -0.002184546  -5.1682597e-06               0    0.0037365182       928.11617    0.0069738289   9.4067507e-07
     0.17657658   8.4725428e-17   1.2839766e-19               0   -0.0021642477   -4.975239e-06               0    0.0036968921       924.27244    0.0069163009   9.3622194e-07
     0.17867868   8.4725428e-17   1.2839766e-19               0   -0.0021439493  -4.7822183e-06               0    0.0036572659       920.42871     0.006858773   9.3176882e-07
     0.18078078   8.3556336e-17   1.1611708e-19               0   -0.0021247559  -4.5998002e-06               0    0.0036174744       916.69745    0.0068033602   9.2751763e-07
     0.18288288   8.3556336e-17   1.1611708e-19               0   -0.0021059548  -4.4211466e-06               0    0.0035776242       913.00612    0.0067486985   9.2333814e-07
     0.18498498   8.2432863e-17    1.043297e-19               0   -0.0020872894  -4.2436788e-06               0    0.0035379871       909.33077    0.0066943229   9.1918433e-07
     0.18708709   8.2432863e-17    1.043297e-19               0    -0.002069999  -4.0782307e-06               0    0.0035005113        905.8174    0.0066428468   9.1529085e-07
     0.18918919   8.2432863e-17    1.043297e-19               0   -0.0020527086  -3.9127826e-06               0    0.0034630355       902.30404    0.0065913708   9.1139738e-07
     0.19129129   8.1361119e-17   9.3056074e-20               0   -0.0020359617  -3.7520311e-06               0    0.0034272521       898.86451    0.0065411581   9.0761024e-07
     0.19339339   8.1361119e-17   9.3056074e-20               0   -0.0020201798    -3.59962e-06               0     0.003394474       895.55609     0.006493189   9.0401195e-07
      0.1954955   8.1361119e-17   9.3056074e-20               0   -0.0020043979  -3.4472088e-06               0    0.0033616959       892.24768    0.0064452198   9.0041366e-07
      0.1975976   8.0347323e-17   8.2357056e-20               0   -0.0019894335  -3.3020585e-06               0    0.0033315862       889.07459    0.0063994582   8.9698039e-07
      0.1996997   8.0347323e-17   8.2357056e-20               0   -0.0019751465  -3.1629249e-06               0    0.0033036878       886.01363    0.0063555259   8.9368388e-07
      0.2018018   8.0347323e-17   8.2357056e-20               0   -0.0019608595  -3.0237913e-06               0    0.0032757894       882.95268    0.0063115936   8.9038737e-07
      0.2039039   7.9396822e-17   7.2330528e-20               0   -0.0019475216  -2.8928698e-06               0    0.0032510716       880.07141    0.0062704902   8.8728809e-07
     0.20600601   7.9396822e-17   7.2330528e-20               0   -0.0019347016  -2.7664285e-06               0    0.0032280891       877.28818    0.0062309301   8.8429641e-07
     0.20810811   7.9396822e-17   7.2330528e-20               0   -0.0019218815  -2.6399872e-06               0    0.0032051065       874.50494    0.0061913701   8.8130473e-07
     0.21021021   7.8514361e-17   6.2898426e-20               0   -0.0019100031   -2.521288e-06               0    0.0031849122        871.9144    0.0061547606   8.7851412e-07
     0.21231231   7.8514361e-17   6.2898426e-20               0   -0.0018986139  -2.4066111e-06               0    0.0031661665       869.42397     0.006119684   8.7582797e-07
     0.21441441   7.8514361e-17   6.2898426e-20               0   -0.0018872247  -2.2919342e-06               0    0.0031474208       866.93354    0.0060846075   8.7314183e-07
     0.21651652   7.7704361e-17   5.4078741e-20               0   -0.0018766277  -2.1843997e-06               0    0.0031298367       864.61352    0.0060520811     8.70629e-07
     0.21861862   7.7704361e-17   5.4078741e-20               0   -0.0018666106   -2.082094e-06               0    0.0031131028       862.41824    0.0060214217   8.6824306e-07
     0.22072072   7.7704361e-17   5.4078741e-20               0   -0.0018565936  -1.9797882e-06               0     0.003096369       860.22297    0.0059907622   8.6585711e-07
     0.22282282   7.6968144e-17   4.6055544e-20               0   -0.0018470905  -1.8825804e-06               0      0.00308019       858.14259    0.0059617894   8.6358595e-07
     0.22492492   7.6968144e-17   4.6055544e-20               0    -0.001838352  -1.7929578e-06               0    0.0030648365       856.23313    0.0059353261   8.6148558e-07
     0.22702703   7.6968144e-17   4.6055544e-20               0   -0.0018296135  -1.7033352e-06               0     0.003049483       854.32367    0.0059088628   8.5938521e-07
     0.22912913   7.6304126e-17   3.8808172e-20               0   -0.0018210255  -1.6152437e-06               0     0.003034448       852.44866    0.0058828971   8.5731904e-07
     0.23123123   7.6304126e-17   3.8808172e-20               0   -0.0018134532   -1.537491e-06               0    0.0030215642       850.80624    0.0058602915   8.5548385e-07
     0.23333333   7.6304126e-17   3.8808172e-20               0   -0.0018058809  -1.4597384e-06               0    0.0030086803       849.16382     0.005837686   8.5364865e-07
