#      distance             U_x             U_y             U_z wallShearStr... wallShearStr... wallShearStr...               p           omega               k             nut
    0.001215373      0.62966146   9.8890049e-05               0               0               0               0   0.00015942658       356.91806    0.0041861399   1.5160225e-05
   0.0020572852      0.68699726   0.00011961659               0               0               0               0   0.00016352578       180.47873    0.0041284431    2.506682e-05
   0.0029273097      0.72303686   0.00014422173               0               0               0               0      0.00016876       119.73051    0.0039713869   3.4680957e-05
   0.0038263852      0.75019317   0.00017328418               0               0               0               0   0.00017469502       89.971122    0.0038430896   4.3783377e-05
   0.0047554818      0.77243418   0.00020663355               0               0               0               0   0.00018103323       72.469069    0.0037249073   5.2171793e-05
   0.0057156019      0.79159537   0.00024414419               0               0               0               0    0.0001875592       61.054235    0.0036077066   5.9648325e-05
   0.0067077814      0.80869414   0.00028578396               0               0               0               0   0.00019409679       53.114242    0.0034871756   6.6051162e-05
   0.0077330908      0.82435879    0.0003315973               0               0               0               0   0.00020048405       47.357368    0.0033608528   7.1240033e-05
   0.0087926364      0.83901795   0.00038179625               0               0               0               0   0.00020656487       43.071644    0.0032268735   7.5007293e-05
   0.0098875613      0.85301582   0.00043683368               0               0               0               0   0.00021217717       39.820553    0.0030828092   7.6910111e-05
    0.011019047      0.86665979   0.00049741927               0               0               0               0   0.00021712561       37.303049    0.0029250873   7.6702928e-05
    0.012188314      0.88019941   0.00056463503               0               0               0               0   0.00022120152       35.292385    0.0027491305   7.4569632e-05
    0.013396624      0.89381714   0.00063994949               0               0               0               0    0.0002242537        33.60408    0.0025496184   7.0738228e-05
    0.014645281      0.90763952   0.00072490258               0               0               0               0   0.00022622615       32.077649    0.0023212172   6.5468708e-05
    0.015935632      0.92171133   0.00082047997               0               0               0               0    0.0002271427       30.573899     0.002060243   5.9221189e-05
    0.017269069      0.93591447   0.00092620681               0               0               0               0   0.00022706741       28.986574    0.0017678646   5.2723784e-05
    0.018647031      0.94987217      0.00103904               0               0               0               0   0.00022607745        27.28263    0.0014550088   4.6778221e-05
    0.020071004      0.96302442    0.0011539553               0               0               0               0   0.00022431098        25.48729    0.0011401553   4.1375768e-05
    0.021542526      0.97503991    0.0012670602               0               0               0               0        0.000222       23.532642   0.00083495108   3.4512263e-05
    0.023063183      0.98587663    0.0013758323               0               0               0               0    0.0002193484       21.087061   0.00054507953   2.5313317e-05
    0.024634616      0.99494177    0.0014704308               0               0               0               0    0.0002164335       17.525037   0.00029268211   1.5827687e-05
    0.026258521       1.0008374    0.0015309497               0               0               0               0   0.00021334875       12.690741    0.0001166386    8.127876e-06
     0.02793665       1.0032391    0.0015528156               0               0               0               0   0.00021033352       8.3024292   3.1260309e-05    3.149246e-06
    0.029670814       1.0037245    0.0015547228               0               0               0               0   0.00020752187       6.2087505   5.6807356e-06   8.3616752e-07
    0.031462883       1.0037591     0.001551671               0               0               0               0   0.00020480906       5.7843441   1.2888507e-06   2.2142292e-07
    0.033314791       1.0037568    0.0015480073               0               0               0               0   0.00020205485       5.7421215   8.3849556e-07   1.4601485e-07
    0.035228536       1.0037551    0.0015427109               0               0               0               0   0.00019915235       5.7389334   8.0335863e-07    1.399795e-07
    0.037206184       1.0037539    0.0015394846               0               0               0               0   0.00019610493       5.7387108   8.0084881e-07   1.3954731e-07
    0.039249867       1.0037522    0.0015416414               0               0               0               0   0.00019305454       5.7386923   8.0067808e-07   1.3951798e-07
     0.04136179       1.0037496    0.0015431872               0               0               0               0   0.00019006402       5.7386866   8.0066619e-07   1.3951605e-07
    0.043544233       1.0037467    0.0015422198               0               0               0               0   0.00018707931       5.7386808   8.0066447e-07   1.3951589e-07
     0.04579955       1.0037438    0.0015402845               0               0               0               0   0.00018404783       5.7386743   8.0066326e-07   1.3951584e-07
    0.048130175       1.0037411    0.0015380192               0               0               0               0   0.00018093508       5.7386667   8.0066195e-07   1.3951579e-07
    0.050538621       1.0037429     0.001536764               0               0               0               0   0.00017774656       5.7386591   8.0066073e-07   1.3951577e-07
    0.053027488       1.0037533    0.0015415932               0               0               0               0    0.0001745838       5.7386506    8.006595e-07   1.3951576e-07
    0.055599461        1.003766    0.0015535393               0               0               0               0   0.00017163568       5.7386391    8.006576e-07   1.3951571e-07
    0.058257315       1.0037744    0.0015639908               0               0               0               0   0.00016898654       5.7386256   8.0065523e-07   1.3951562e-07
    0.061003917       1.0037798    0.0015703663               0               0               0               0   0.00016657009       5.7386113   8.0065284e-07   1.3951555e-07
    0.063842231       1.0037842    0.0015749448               0               0               0               0   0.00016433345       5.7385957   8.0065031e-07   1.3951549e-07
     0.06677532       1.0037877    0.0015773903               0               0               0               0   0.00016225432       5.7385785   8.0064756e-07   1.3951543e-07
    0.069806347       1.0037908    0.0015776363               0               0               0               0   0.00016032847       5.7385597    8.006446e-07   1.3951537e-07
    0.072938584       1.0037937    0.0015751451               0               0               0               0   0.00015855877        5.738539   8.0064133e-07    1.395153e-07
    0.076175409       1.0037942    0.0015702333               0               0               0               0   0.00015690053       5.7385164   8.0063779e-07   1.3951524e-07
    0.079520315       1.0037914    0.0015631104               0               0               0               0   0.00015528556       5.7384917   8.0063393e-07   1.3951517e-07
    0.082976911       1.0037867     0.001555335               0               0               0               0   0.00015368292       5.7384649   8.0062974e-07   1.3951509e-07
    0.086548926       1.0037812    0.0015478931               0               0               0               0   0.00015209866       5.7384357    8.006252e-07     1.39515e-07
    0.090240215       1.0037751    0.0015408215               0               0               0               0   0.00015053583       5.7384045   8.0062031e-07   1.3951491e-07
     0.09405476       1.0037696    0.0015339523               0               0               0               0    0.0001489876       5.7383777   8.0061601e-07   1.3951481e-07
