#      distance             U_x             U_y             U_z wallShearStr... wallShearStr... wallShearStr...               p           omega               k             nut
  5.5511169e-17      0.99945221   3.5133579e-22               0               0               0               0    0.0045257189        82.60858   1.4478234e-05   1.7503879e-07
   0.0021021021      0.99943604   3.5133579e-22               0               0               0               0    0.0045414597         81.7644   1.4318657e-05   1.7489774e-07
   0.0042042042      0.99941987   3.5133579e-22               0               0               0               0    0.0045572004       80.920219    1.415908e-05   1.7475669e-07
   0.0063063063      0.99940371   3.5133579e-22               0               0               0               0    0.0045729412       80.076039   1.3999503e-05   1.7461563e-07
   0.0084084084      0.99938754   3.5133579e-22               0               0               0               0     0.004588682       79.231859   1.3839926e-05   1.7447458e-07
    0.010510511      0.99937137   3.5133579e-22               0               0               0               0    0.0046044228       78.387678   1.3680349e-05   1.7433352e-07
    0.012612613       0.9993552   3.5133579e-22               0               0               0               0    0.0046201636       77.543498   1.3520772e-05   1.7419247e-07
    0.014714715      0.99933904   3.5133579e-22               0               0               0               0    0.0046359044       76.699317   1.3361195e-05   1.7405142e-07
    0.016816817      0.99932287   3.5133579e-22               0               0               0               0    0.0046516451       75.855137   1.3201618e-05   1.7391036e-07
    0.018918919       0.9993067   3.5133579e-22               0               0               0               0    0.0046673859       75.010956   1.3042041e-05   1.7376931e-07
    0.021021021      0.99929053   3.5133579e-22               0               0               0               0    0.0046831267       74.166776   1.2882464e-05   1.7362825e-07
    0.023123123      0.99926372   5.7263368e-22               0               0               0               0    0.0047096198       73.498521   1.2757359e-05   1.7349593e-07
    0.025225225      0.99923656   5.7263368e-22               0               0               0               0    0.0047364644       72.836018    1.263338e-05   1.7336389e-07
    0.027327327      0.99920939   5.7263368e-22               0               0               0               0    0.0047633091       72.173515   1.2509401e-05   1.7323185e-07
    0.029429429      0.99918223   5.7263368e-22               0               0               0               0    0.0047901537       71.511012   1.2385422e-05   1.7309981e-07
    0.031531532      0.99915507   5.7263368e-22               0               0               0               0    0.0048169984       70.848509   1.2261444e-05   1.7296777e-07
    0.033633634      0.99912791   5.7263368e-22               0               0               0               0     0.004843843       70.186006   1.2137465e-05   1.7283574e-07
    0.035735736      0.99910074   5.7263368e-22               0               0               0               0    0.0048706877       69.523503   1.2013486e-05    1.727037e-07
    0.037837838      0.99907358   5.7263368e-22               0               0               0               0    0.0048975323          68.861   1.1889507e-05   1.7257166e-07
     0.03993994      0.99904642   5.7263368e-22               0               0               0               0     0.004924377       68.198497   1.1765529e-05   1.7243962e-07
    0.042042042      0.99901926   5.7263368e-22               0               0               0               0    0.0049512216       67.535994    1.164155e-05   1.7230758e-07
    0.044144144      0.99899209   5.7263368e-22               0               0               0               0    0.0049780663       66.873492   1.1517571e-05   1.7217554e-07
    0.046246246      0.99896493   5.7263368e-22               0               0               0               0    0.0050049109       66.210989   1.1393593e-05    1.720435e-07
    0.048348348      0.99892388   1.0259245e-21               0               0               0               0     0.005044262       65.614928    1.128253e-05    1.719156e-07
     0.05045045      0.99887602   1.0259245e-21               0               0               0               0    0.0050897533       65.051489   1.1177809e-05   1.7178972e-07
    0.052552553      0.99882815   1.0259245e-21               0               0               0               0    0.0051352447        64.48805   1.1073088e-05   1.7166385e-07
    0.054654655      0.99878029   1.0259245e-21               0               0               0               0     0.005180736       63.924612   1.0968367e-05   1.7153797e-07
    0.056756757      0.99873242   1.0259245e-21               0               0               0               0    0.0052262274       63.361173   1.0863646e-05    1.714121e-07
    0.058858859      0.99868456   1.0259245e-21               0               0               0               0    0.0052717187       62.797734   1.0758925e-05   1.7128623e-07
    0.060960961       0.9986367   1.0259245e-21               0               0               0               0    0.0053172101       62.234295   1.0654205e-05   1.7116035e-07
    0.063063063      0.99858883   1.0259245e-21               0               0               0               0    0.0053627015       61.670856   1.0549484e-05   1.7103448e-07
    0.065165165      0.99854097   1.0259245e-21               0               0               0               0    0.0054081928       61.107417   1.0444763e-05    1.709086e-07
    0.067267267      0.99846742   1.5328891e-21               0               0               0               0    0.0054829432       60.594387    1.034979e-05   1.7078637e-07
    0.069369369      0.99838952   1.5328891e-21               0               0               0               0    0.0055626605       60.089915   1.0256472e-05   1.7066476e-07
    0.071471471      0.99831161   1.5328891e-21               0               0               0               0    0.0056423778       59.585442   1.0163154e-05   1.7054315e-07
    0.073573574      0.99823371   1.5328891e-21               0               0               0               0    0.0057220951       59.080969   1.0069836e-05   1.7042154e-07
    0.075675676      0.99815581   1.5328891e-21               0               0               0               0    0.0058018124       58.576496   9.9765183e-06   1.7029993e-07
    0.077777778       0.9980779   1.5328891e-21               0               0               0               0    0.0058815297       58.072023   9.8832003e-06   1.7017832e-07
     0.07987988      0.99794487   3.7876549e-21               0               0               0               0    0.0059979732        57.58741   9.7937105e-06   1.7005831e-07
    0.081981982      0.99776395   3.7876549e-21               0               0               0               0    0.0061463283       57.120054   9.7075469e-06   1.6993969e-07
    0.084084084      0.99758302   3.7876549e-21               0               0               0               0    0.0062946834       56.652697   9.6213834e-06   1.6982106e-07
    0.086186186      0.99740209   3.7876549e-21               0               0               0               0    0.0064430386       56.185341   9.5352198e-06   1.6970244e-07
    0.088288288      0.99722075   7.7206626e-21               0               0               0               0    0.0065922228       55.718099   9.4490781e-06   1.6958382e-07
     0.09039039        0.996951   7.7206626e-21               0               0               0               0    0.0069214235       55.275806   9.3676794e-06    1.694666e-07
    0.092492492      0.99668124   7.7206626e-21               0               0               0               0    0.0072506242       54.833513   9.2862806e-06   1.6934938e-07
    0.094594595      0.99641149   7.7206626e-21               0               0               0               0    0.0075798249        54.39122   9.2048819e-06   1.6923217e-07
    0.096696697      0.83436108   9.0374174e-20               0  -0.00054356891  -5.7730255e-07               0     0.007946785       61.565175   9.1590337e-06   3.3089856e-07
    0.098798799      0.62032436   9.0374174e-20               0   -0.0012618073  -1.3401145e-06               0    0.0083258786       71.186521   9.1246093e-06   5.4455222e-07
      0.1009009      0.35479471   8.4542687e-20               0   -0.0021425906  -2.7146092e-06               0    0.0084500907       83.294311   9.1682506e-06   8.0791039e-07
       0.103003     0.020607809   8.4542687e-20               0   -0.0032401005  -4.9046811e-06               0    0.0082344607       98.717358   9.3159796e-06   1.1375412e-06
     0.10510511   1.0765675e-16   1.5619036e-19               0   -0.0032618874  -6.4505301e-06               0    0.0075584732       99.668428   9.6930675e-06   1.1498606e-06
     0.10720721   1.0618761e-16   1.9602007e-19               0   -0.0032125904  -7.7388741e-06               0     0.006927215       99.668428   1.0333712e-05   1.1412142e-06
     0.10930931   1.0618761e-16   1.9602007e-19               0   -0.0031627147  -8.7075602e-06               0    0.0064073533       99.668428    1.134351e-05   1.1324003e-06
     0.11141141    1.046216e-16   2.3140347e-19               0   -0.0031134373  -9.6745633e-06               0     0.006097893       191.92504   0.00045254254   1.1235915e-06
     0.11351351   1.0307047e-16   2.7621218e-19               0   -0.0030648586  -1.0612624e-05               0    0.0058510418       314.57632    0.0010848735   1.1148641e-06
     0.11561562   1.0307047e-16   2.7621218e-19               0   -0.0030187395  -1.1426676e-05               0    0.0056742559       480.71833     0.002124842   1.1064855e-06
     0.11771772   1.0157437e-16   3.0393538e-19               0   -0.0029743892  -1.1980522e-05               0    0.0055188045        608.8322    0.0031038794   1.0983731e-06
     0.11981982   1.0157437e-16   3.0393538e-19               0   -0.0029317708  -1.2279588e-05               0     0.005384243        699.7107    0.0040232561   1.0905212e-06
     0.12192192    1.001359e-16    3.071294e-19               0   -0.0028917147  -1.2272568e-05               0    0.0052678226       764.59616     0.004776808   1.0830613e-06
     0.12402402    1.001359e-16    3.071294e-19               0   -0.0028524171  -1.2174948e-05               0    0.0051567719       821.78776    0.0054812763   1.0757174e-06
     0.12612613   9.8753665e-17   2.9986615e-19               0   -0.0028160191  -1.1922938e-05               0    0.0050612115       857.84105    0.0059751521   1.0688238e-06
     0.12822823   9.7417368e-17   2.8773756e-19               0    -0.002780022  -1.1656684e-05               0    0.0049683547       891.53408    0.0064406209   1.0619925e-06
     0.13033033   9.7417368e-17   2.8773756e-19               0   -0.0027461597  -1.1319372e-05               0    0.0048902734        913.0389    0.0067553092   1.0554929e-06
     0.13243243    9.611646e-17   2.7094589e-19               0   -0.0027127717  -1.0969075e-05               0    0.0048156387       932.25899    0.0070381994   1.0490648e-06
     0.13453453    9.611646e-17   2.7094589e-19               0   -0.0026808499  -1.0578647e-05               0     0.004751656       944.41777    0.0072228115   1.0428576e-06
     0.13663664   9.4828636e-17   2.5144909e-19               0   -0.0026493479  -1.0189723e-05               0    0.0046893785       954.82953    0.0073814404   1.0367099e-06
     0.13873874   9.4828636e-17   2.5144909e-19               0   -0.0026188854  -9.8045246e-06               0    0.0046313225       960.91655    0.0074757477   1.0307092e-06
     0.14084084    9.354408e-17   2.3315957e-19               0   -0.0025887601   -9.429929e-06               0    0.0045732391       965.93197    0.0075535375   1.0247544e-06
     0.14294294    9.354408e-17   2.3315957e-19               0    -0.002559542  -9.0838736e-06               0    0.0045150822       968.06304    0.0075868682    1.018923e-06
     0.14504505   9.2259198e-17   2.1612182e-19               0   -0.0025305475  -8.7444149e-06               0    0.0044569318       969.70168    0.0076124941   1.0131218e-06
     0.14714715   9.2259198e-17   2.1612182e-19               0    -0.002502493  -8.4327039e-06               0    0.0043988094       969.26905    0.0076057114    1.007448e-06
     0.14924925   9.0974512e-17   2.0011987e-19               0   -0.0024744954   -8.122406e-06               0    0.0043407588       968.75565    0.0075976668    1.001782e-06
     0.15135135   9.0974512e-17   2.0011987e-19               0   -0.0024475943  -7.8392972e-06               0    0.0042840882       966.68844     0.007565339   9.9626794e-07
     0.15345345   9.0974512e-17   2.0011987e-19               0   -0.0024206933  -7.5561884e-06               0    0.0042274177       964.62123    0.0075330112   9.9075387e-07
     0.15555556   8.9692629e-17    1.850014e-19               0   -0.0023947862  -7.2925402e-06               0    0.0041725667       961.70609    0.0074876552   9.8538305e-07
     0.15765766   8.9692629e-17    1.850014e-19               0   -0.0023690673   -7.032574e-06               0      0.00411806       958.63052    0.0074398343   9.8003933e-07
     0.15975976   8.8418232e-17   1.7051489e-19               0   -0.0023440572  -6.7800519e-06               0    0.0040651215       955.22535    0.0073871431   9.7480349e-07
     0.16186186   8.8418232e-17   1.7051489e-19               0   -0.0023195939  -6.5332717e-06               0    0.0040133926       951.56594    0.0073306954   9.6965086e-07
     0.16396396    8.715943e-17   1.5588688e-19               0    -0.002295442  -6.2885279e-06               0       0.0039627       947.84497    0.0072734222   9.6454925e-07
     0.16606607    8.715943e-17   1.5588688e-19               0   -0.0022724055  -6.0510772e-06               0    0.0039157189       943.90349    0.0072131926   9.5963038e-07
     0.16816817    8.715943e-17   1.5588688e-19               0   -0.0022493689  -5.8136266e-06               0    0.0038687377       939.96202     0.007152963   9.5471151e-07
     0.17027027   8.5932916e-17   1.4137844e-19               0   -0.0022274381  -5.5933924e-06               0    0.0038260646       936.00355    0.0070929637   9.4997784e-07
     0.17237237   8.5932916e-17   1.4137844e-19               0   -0.0022057838  -5.3774651e-06               0    0.0037844692       932.04083    0.0070330221   9.4529049e-07
     0.17447447   8.4725436e-17   1.2840592e-19               0   -0.0021845462  -5.1685643e-06               0    0.0037434282       928.11468    0.0069738221   9.4067512e-07
     0.17657658   8.4725436e-17   1.2840592e-19               0   -0.0021642479  -4.9755078e-06               0    0.0037036374       924.27096    0.0069162943   9.3622202e-07
     0.17867868   8.4725436e-17   1.2840592e-19               0   -0.0021439497  -4.7824514e-06               0    0.0036638467       920.42725    0.0068587665   9.3176892e-07
     0.18078078   8.3556352e-17   1.1612217e-19               0   -0.0021247563  -4.5999972e-06               0    0.0036239462         916.696    0.0068033539   9.2751775e-07
     0.18288288   8.3556352e-17   1.1612217e-19               0   -0.0021059553  -4.4213074e-06               0    0.0035840068       913.00469    0.0067486924   9.2333827e-07
     0.18498498   8.2432876e-17   1.0433214e-19               0   -0.0020872899  -4.2438045e-06               0    0.0035442895       909.32936    0.0066943169   9.1918446e-07
     0.18708709   8.2432876e-17   1.0433214e-19               0   -0.0020699994  -4.0783336e-06               0    0.0035068242       905.81601    0.0066428409   9.1529096e-07
     0.18918919   8.2432876e-17   1.0433214e-19               0   -0.0020527089  -3.9128627e-06               0    0.0034693589       902.30265    0.0065913649   9.1139746e-07
     0.19129129   8.1361119e-17   9.3057262e-20               0   -0.0020359618  -3.7520945e-06               0    0.0034336077       898.86312    0.0065411522   9.0761029e-07
     0.19339339   8.1361119e-17   9.3057262e-20               0   -0.0020201798  -3.5996775e-06               0    0.0034009007       895.55469    0.0064931828   9.0401195e-07
      0.1954955   8.1361119e-17   9.3057262e-20               0   -0.0020043977  -3.4472605e-06               0    0.0033681937       892.24626    0.0064452135   9.0041362e-07
      0.1975976    8.034731e-17   8.2358512e-20               0   -0.0019894331  -3.3021115e-06               0    0.0033381522       889.07316    0.0063994516   8.9698031e-07
      0.1996997    8.034731e-17   8.2358512e-20               0    -0.001975146  -3.1629852e-06               0    0.0033103194       886.01218     0.006355519   8.9368376e-07
      0.2018018    8.034731e-17   8.2358512e-20               0   -0.0019608588  -3.0238588e-06               0    0.0032824867       882.95121    0.0063115863   8.9038721e-07
      0.2039039     7.93968e-17   7.2333173e-20               0   -0.0019475209   -2.892946e-06               0    0.0032577989       880.06992    0.0062704827   8.8728791e-07
     0.20600601     7.93968e-17   7.2333173e-20               0   -0.0019347007   -2.766514e-06               0    0.0032348269       877.28668    0.0062309224   8.8429621e-07
     0.20810811     7.93968e-17   7.2333173e-20               0   -0.0019218806  -2.6400821e-06               0    0.0032118549       874.50343    0.0061913621   8.8130452e-07
     0.21021021   7.8514338e-17   6.2901875e-20               0   -0.0019100022  -2.5213866e-06               0     0.003191629       871.91288    0.0061547525   8.7851392e-07
     0.21231231   7.8514338e-17   6.2901875e-20               0   -0.0018986131  -2.4067104e-06               0    0.0031728297       869.42245     0.006119676   8.7582778e-07
     0.21441441   7.8514338e-17   6.2901875e-20               0   -0.0018872239  -2.2920342e-06               0    0.0031540304       866.93202    0.0060845994   8.7314165e-07
     0.21651652   7.7704347e-17   5.4081781e-20               0    -0.001876627  -2.1844942e-06               0    0.0031363707         864.612    0.0060520731   8.7062885e-07
     0.21861862   7.7704347e-17   5.4081781e-20               0   -0.0018666101  -2.0821783e-06               0    0.0031195454       862.41674    0.0060214139   8.6824293e-07
     0.22072072   7.7704347e-17   5.4081781e-20               0   -0.0018565932  -1.9798625e-06               0      0.00310272       860.22149    0.0059907547   8.6585702e-07
     0.22282282   7.6968143e-17   4.6057089e-20               0   -0.0018470902  -1.8826425e-06               0    0.0030864498       858.14111    0.0059617821   8.6358589e-07
     0.22492492   7.6968143e-17   4.6057089e-20               0   -0.0018383519  -1.7930047e-06               0    0.0030710055       856.23168     0.005935319   8.6148554e-07
     0.22702703   7.6968143e-17   4.6057089e-20               0   -0.0018296136  -1.7033668e-06               0    0.0030555612       854.32225     0.005908856    8.593852e-07
     0.22912913   7.6304132e-17   3.8807993e-20               0   -0.0018210257  -1.6152603e-06               0     0.003040439       852.44726    0.0058828906   8.5731906e-07
     0.23123123   7.6304132e-17   3.8807993e-20               0   -0.0018134534  -1.5374943e-06               0    0.0030274924       850.80486    0.0058602853   8.5548388e-07
     0.23333333   7.6304132e-17   3.8807993e-20               0   -0.0018058811  -1.4597284e-06               0    0.0030145457       849.16245      0.00583768   8.5364871e-07
