#      distance             U_x             U_y             U_z wallShearStr... wallShearStr... wallShearStr...               p           omega               k             nut
    0.001215373      0.62966151   9.9032718e-05               0               0               0               0   0.00016021451        356.9179     0.004186137   1.5160209e-05
   0.0020572852      0.68699733   0.00011974467               0               0               0               0   0.00016431372       180.47865    0.0041284376   2.5066791e-05
   0.0029273097      0.72303691    0.0001443226               0               0               0               0     0.000169548       119.73044    0.0039713797   3.4680911e-05
   0.0038263852      0.75019323   0.00017337079               0               0               0               0   0.00017548304       89.971066    0.0038430813   4.3783308e-05
   0.0047554818      0.77243423   0.00020671323               0               0               0               0   0.00018182119       72.469024    0.0037248987   5.2171704e-05
   0.0057156019      0.79159543   0.00024421999               0               0               0               0   0.00018834697       61.054213    0.0036076989   5.9648218e-05
   0.0067077814      0.80869423    0.0002858567               0               0               0               0   0.00019488422       53.114264    0.0034871703   6.6051033e-05
   0.0077330908      0.82435891   0.00033166647               0               0               0               0   0.00020127098       47.357463     0.003360852   7.1239869e-05
   0.0087926364      0.83901815   0.00038186154               0               0               0               0   0.00020735112       43.071849    0.0032268795   7.5007009e-05
   0.0098875613      0.85301616   0.00043689483               0               0               0               0   0.00021296256       39.820907    0.0030828244   7.6909457e-05
    0.011019047      0.86666038   0.00049747639               0               0               0               0   0.00021790997       37.303589    0.0029251139   7.6701807e-05
    0.012188314      0.88020039   0.00056468935               0               0               0               0    0.0002219847       35.293142      0.00274917   7.4568155e-05
    0.013396624      0.89381867   0.00064000205               0               0               0               0   0.00022503556       33.605065    0.0025496709   7.0736466e-05
    0.014645281      0.90764176   0.00072495204               0               0               0               0   0.00022700656       32.078839    0.0023212803   6.5466767e-05
    0.015935632      0.92171445   0.00082052309               0               0               0               0    0.0002279215       30.575225    0.0020603108   5.9219205e-05
    0.017269069      0.93591859   0.00092623964               0               0               0               0   0.00022784444       28.987916    0.0017679271   5.2721983e-05
    0.018647031      0.94987725    0.0010390575               0               0               0               0   0.00022685253       27.283841    0.0014550557   4.6777083e-05
    0.020071004       0.9630301    0.0011539498               0               0               0               0   0.00022508388       25.488237     0.001140183   4.1375599e-05
    0.021542526      0.97504559    0.0012670164               0               0               0               0   0.00022277054       23.533242   0.00083496385   3.4512288e-05
    0.023063183       0.9858817    0.0013757292               0               0               0               0   0.00022011658       21.087341   0.00054508547   2.5313234e-05
    0.024634616      0.99494584    0.0014702609               0               0               0               0   0.00021719948       17.525202    0.0002926873    1.582786e-05
    0.026258521       1.0008405    0.0015307301               0               0               0               0   0.00021411276       12.691017   0.00011664363   8.1281299e-06
     0.02793665       1.0032416    0.0015525316               0               0               0               0   0.00021109578       8.3027035   3.1263155e-05   3.1494483e-06
    0.029670814       1.0037269     0.001554182               0               0               0               0   0.00020828226       6.2088644   5.6815376e-06   8.3626221e-07
    0.031462883       1.0037613    0.0015511323               0               0               0               0   0.00020556734       5.7843796   1.2889655e-06   2.2144082e-07
    0.033314791       1.0037589    0.0015471355               0               0               0               0    0.0002028104       5.7421462   8.3850851e-07   1.4601647e-07
    0.035228536       1.0037573    0.0015415942               0               0               0               0   0.00019990483       5.7389572   8.0336238e-07   1.3997957e-07
    0.037206184       1.0037564    0.0015390086               0               0               0               0   0.00019685555       5.7387346   8.0085187e-07   1.3954727e-07
    0.039249867       1.0037545    0.0015413956               0               0               0               0   0.00019380421       5.7387162   8.0068111e-07   1.3951793e-07
     0.04136179       1.0037516    0.0015431154               0               0               0               0   0.00019081293       5.7387104   8.0066921e-07     1.39516e-07
    0.043544233       1.0037487     0.001542185               0               0               0               0   0.00018782777       5.7387047   8.0066749e-07   1.3951583e-07
     0.04579955       1.0037457    0.0015398742               0               0               0               0   0.00018479519       5.7386981   8.0066627e-07   1.3951578e-07
    0.048130175       1.0037435    0.0015376699               0               0               0               0   0.00018168079       5.7386907   8.0066499e-07   1.3951574e-07
    0.050538621       1.0037472    0.0015374651               0               0               0               0   0.00017849131       5.7386832   8.0066383e-07   1.3951572e-07
    0.053027488       1.0037592    0.0015437912               0               0               0               0   0.00017532838       5.7386747   8.0066258e-07   1.3951571e-07
    0.055599461       1.0037716    0.0015560628               0               0               0               0   0.00017238025        5.738663   8.0066062e-07   1.3951565e-07
    0.058257315       1.0037796    0.0015659996               0               0               0               0   0.00016973101       5.7386495   8.0065824e-07   1.3951557e-07
    0.061003917       1.0037849    0.0015720154               0               0               0               0   0.00016731429       5.7386352   8.0065586e-07    1.395155e-07
    0.063842231       1.0037893     0.001576323               0               0               0               0    0.0001650772       5.7386196   8.0065334e-07   1.3951544e-07
     0.06677532       1.0037927    0.0015785271               0               0               0               0   0.00016299753       5.7386025    8.006506e-07   1.3951538e-07
    0.069806347       1.0037961    0.0015781895               0               0               0               0   0.00016107074       5.7385837   8.0064764e-07   1.3951532e-07
    0.072938584        1.003799    0.0015751792               0               0               0               0    0.0001592994        5.738563   8.0064438e-07   1.3951525e-07
    0.076175409       1.0037992    0.0015700015               0               0               0               0   0.00015763926       5.7385404   8.0064083e-07   1.3951519e-07
    0.079520315       1.0037958    0.0015624805               0               0               0               0   0.00015602262       5.7385157   8.0063698e-07   1.3951512e-07
    0.082976911       1.0037908    0.0015545208               0               0               0               0   0.00015441828       5.7384889   8.0063279e-07   1.3951504e-07
    0.086548926       1.0037853    0.0015470984               0               0               0               0   0.00015283216       5.7384596   8.0062824e-07   1.3951495e-07
    0.090240215       1.0037791    0.0015400269               0               0               0               0   0.00015126735       5.7384284   8.0062335e-07   1.3951486e-07
     0.09405476       1.0037735    0.0015331357               0               0               0               0   0.00014971708       5.7384016   8.0061903e-07   1.3951476e-07
