#      distance             U_x             U_y             U_z wallShearStr... wallShearStr... wallShearStr...               p           omega               k             nut
  3.0219182e-06     0.018437902   2.6284843e-09  -3.4461462e-23               0               0               0     0.000232767       5570601.8   3.9968318e-07   3.7391041e-13
  5.0865428e-06     0.031038053   6.6679112e-09  -1.4611575e-23               0               0               0   0.00023276721       1240850.2   1.8252637e-06   3.4559072e-12
  7.2269684e-06     0.044100108   1.3130662e-08  -3.7643333e-23               0               0               0   0.00023276743       495682.18   5.7569218e-06   1.9325663e-11
  9.4750924e-06     0.057816703   2.2379196e-08   -5.645896e-23               0               0               0   0.00023276765       256764.63    1.441783e-05   7.8819733e-11
  1.1864417e-05      0.07238584   3.4924982e-08  -2.3401051e-23               0               0               0   0.00023276788       152802.44     3.10864e-05   2.5990388e-10
  1.4430548e-05     0.088006934   5.1502399e-08   7.8882835e-23               0               0               0   0.00023276814       99058.222   6.0518705e-05   7.3658865e-10
  1.7211727e-05      0.10486877   7.3069523e-08   1.2748097e-22               0               0               0   0.00023276842       68139.937    0.0001094038    1.861116e-09
  2.0249401e-05      0.12312323   1.0082123e-07   2.8786727e-23               0               0               0   0.00023276874       49052.784    0.0001865627   4.2814195e-09
  2.3588836e-05      0.14283969   1.3618133e-07  -3.0451975e-23               0               0               0   0.00023276913       36671.311   0.00030228862   9.0656152e-09
  2.7279799e-05      0.16394576   1.8073926e-07  -1.5225987e-23               0               0               0   0.00023276961       28321.838    0.0004660385    1.775532e-08
  3.1377293e-05       0.1861823   2.3612887e-07               0               0               0               0   0.00023277024       22484.261   0.00068235647   3.2248276e-08
  3.5942381e-05      0.20911585   3.0391199e-07   7.1949731e-23               0               0               0   0.00023277106       18244.027   0.00094683015   5.4497352e-08
  4.1043091e-05      0.23222716   3.8556011e-07   1.0791305e-22               0               0               0   0.00023277215       15039.651    0.0012453335   8.6183115e-08
  4.6755437e-05      0.25503565   4.8251969e-07   1.2149751e-22               0               0               0   0.00023277356       12530.036    0.0015580325   1.2857481e-07
  5.3164546e-05       0.2772048    5.964676e-07   1.2828756e-22               0               0               0   0.00023277536        10510.29    0.0018656975   1.8205257e-07
  6.0365928e-05      0.29857481   7.2962966e-07  -1.9330847e-22               0               0               0   0.00023277761        8853.581    0.0021545105   2.4683807e-07
    6.84669e-05      0.31908978   8.8472429e-07  -4.1173495e-22               0               0               0    0.0002327804       7476.9389    0.0024168765   3.2495196e-07
  7.7588184e-05      0.33871275   1.0647647e-06  -2.1503886e-22               0               0               0   0.00023278387       6324.5504     0.002649331   4.1961706e-07
   8.786571e-05      0.35741917   1.2731209e-06     6.13557e-23               0               0               0   0.00023278817       5357.5403    0.0028511068   5.3377122e-07
  9.9452634e-05      0.37521879   1.5136662e-06    2.723624e-22               0               0               0   0.00023279341       4546.6262     0.003023702   6.6994566e-07
  0.00011252163      0.39216392   1.7909351e-06   5.6553013e-23               0               0               0   0.00023279973       3867.6653    0.0031701536   8.2954961e-07
  0.00012726745      0.40834873   2.1104255e-06  -1.5312012e-22               0               0               0   0.00023280722       3299.2835    0.0032942019   1.0127855e-06
  0.00014390985      0.42388523   2.4787187e-06  -3.8032184e-23               0               0               0   0.00023281602       2822.4276    0.0033995574     1.22158e-06
  0.00016269684      0.43886743   2.9032361e-06   6.8210336e-23               0               0               0   0.00023282636       2421.0103    0.0034893278   1.4605683e-06
  0.00018390838      0.45336315   3.3922763e-06   5.4410037e-22               0               0               0   0.00023283849       2082.0046    0.0035659024   1.7344586e-06
  0.00020786057      0.46742759   3.9554242e-06   6.7966449e-22               0               0               0   0.00023285271       1794.8368    0.0036312203   2.0475811e-06
  0.00023491035      0.48111008   4.6037594e-06   2.0377445e-22               0               0               0   0.00023286932       1550.8456    0.0036869357   2.4048049e-06
  0.00026546084      0.49445458   5.3499814e-06               0               0               0               0   0.00023288867       1342.9268    0.0037344437   2.8115971e-06
   0.0002999673       0.5075002   6.2086599e-06               0               0               0               0   0.00023291115       1165.2414    0.0037749115   3.2740872e-06
  0.00033894396       0.5202817   7.1965245e-06  -1.8512522e-22               0               0               0   0.00023293724        1012.979      0.00380931   3.7991371e-06
  0.00038297165      0.53283007   8.3327894e-06  -3.7025045e-22               0               0               0   0.00023296745       882.16505    0.0038384423   4.3944132e-06
  0.00043270649        0.545173    9.639528e-06    8.009608e-22               0               0               0   0.00023300236       769.50537    0.0038629688   5.0684634e-06
  0.00048888965      0.55733533   1.1142108e-05   1.5554428e-21               0               0               0   0.00023304266       672.26063    0.0038834283   5.8307938e-06
  0.00055235838      0.56933945   1.2869699e-05   5.6935675e-22               0               0               0    0.0002330891       588.14503    0.0039002553   6.6919438e-06
   0.0006240585      0.58120571   1.4855859e-05               0               0               0               0   0.00023314255        515.2446    0.0039137943   7.6635574e-06
  0.00070505852      0.59295268    1.713923e-05    2.390592e-22               0               0               0   0.00023320398       451.95123    0.0039243103   8.7584421e-06
  0.00079656552      0.60459755   1.9764343e-05    4.781184e-22               0               0               0   0.00023327449        396.9092    0.0039319983   9.9906105e-06
  0.00089994316      0.61615635   2.2782581e-05    2.390592e-22               0               0               0   0.00023335532       348.97187    0.0039369888   1.1375294e-05
    0.001016732      0.62764425    2.625331e-05               0               0               0               0   0.00023344785       307.16633    0.0039393531   1.2928914e-05
   0.0011486725      0.63907579   3.0245228e-05   1.0417297e-21               0               0               0   0.00023355363       270.66469    0.0039391053   1.4668988e-05
   0.0012977308      0.65046521    3.483799e-05  -7.8789771e-22               0               0               0   0.00023367437       238.76044     0.003936204   1.6613956e-05
   0.0014661282      0.66182665    4.012416e-05  -3.4905426e-21               0               0               0   0.00023381199       210.84908    0.0039305515   1.8782876e-05
   0.0016563743      0.67317447   4.6211594e-05  -2.6967155e-21               0               0               0   0.00023396857       186.41215    0.0039219918   2.1194964e-05
   0.0018713042      0.68452356   5.3226353e-05  -1.5854709e-21               0               0               0   0.00023414637       165.00398     0.003910307   2.3868894e-05
   0.0021141207      0.69588971   6.1316315e-05  -5.4967058e-22               0               0               0   0.00023434786       146.24078    0.0038952115   2.6821811e-05
   0.0023884425      0.70728997   7.0655671e-05  -4.0098826e-22               0               0               0   0.00023457561       129.79145    0.0038763445   3.0067934e-05
   0.0026983575      0.71874318   8.1450605e-05   1.2443703e-21               0               0               0   0.00023483231       115.36999    0.0038532592   3.3616635e-05
   0.0030484842      0.73027053   9.3946529e-05  -2.2368265e-21               0               0               0   0.00023512066       102.72918    0.0038254094   3.7469844e-05
   0.0034440402      0.74189629   0.00010843739  -5.6990088e-21               0               0               0   0.00023544321       91.655212     0.003792131   4.1618593e-05
   0.0038909203      0.75364869   0.00012527781  -1.8168236e-21               0               0               0   0.00023580219        81.96332    0.0037526192    4.603848e-05
    0.004395784      0.76556112   0.00014489915   3.1397522e-21               0               0               0   0.00023619918       73.494113    0.0037058969   5.0683835e-05
   0.0049661549      0.77767353   0.00016783151  -4.6845813e-21               0               0               0   0.00023663473       66.110629    0.0036507751   5.5480362e-05
   0.0056105328      0.79003443   0.00019473393  -1.3757723e-20               0               0               0   0.00023710765       59.696034    0.0035857996     6.03161e-05
   0.0063385204       0.8027034   0.00022643276   5.3445865e-21               0               0               0   0.00023761296       54.152016    0.0035091836   6.5030698e-05
   0.0071609664      0.81575453   0.00026395083   1.8558484e-20               0               0               0   0.00023813786       49.398024    0.0034187215   6.9403328e-05
   0.0080901272      0.82929325   0.00030865643   2.9366341e-20               0               0               0   0.00023866652       45.366308    0.0033113869   7.3002751e-05
   0.0091398493      0.84349159   0.00036255877   3.4052958e-20               0               0               0   0.00023918422       41.988124    0.0031823937   7.5149961e-05
    0.010325776      0.85859834    0.0004285721   1.6023684e-20               0               0               0   0.00023965474       39.180373    0.0030240912   7.5298257e-05
     0.01166558      0.87491376   0.00051063164   4.0565608e-21               0               0               0    0.0002400077       36.833299    0.0028246236   7.3109692e-05
    0.013179228      0.89277193   0.00061404453    1.790965e-20               0               0               0   0.00024015101       34.787073    0.0025665909   6.8305192e-05
    0.014889277      0.91247635   0.00074575436   1.6571107e-20               0               0               0   0.00023993655       32.818656    0.0022283339    6.090943e-05
    0.016821209      0.93403283   0.00091053635   5.0714908e-20               0               0               0   0.00023904305       30.697545    0.0017936084   5.1465885e-05
    0.019003816      0.95679178    0.0011121133   7.7419965e-20               0               0               0   0.00023727389       28.146601    0.0012634883   4.0159022e-05
    0.021469624      0.97883373    0.0013395501    4.386467e-20               0               0               0    0.0002344677       23.077238   0.00068843621   2.6267851e-05
    0.024255377      0.99526732    0.0015166101    2.405422e-20               0               0               0   0.00022960048       14.332225   0.00023565263   1.2128865e-05
    0.027402591       1.0024697     0.001584327   5.5560203e-21               0               0               0   0.00022278746        7.312494   3.6687515e-05   3.1148934e-06
    0.030958166        1.003776    0.0015883085               0               0               0               0   0.00021582919       5.3269898    1.775973e-06   3.2424952e-07
    0.034975088       1.0038178    0.0015795088               0               0               0               0   0.00020933808       5.2603573   6.5595316e-07   1.2469776e-07
    0.039513219       1.0038154    0.0015693794   1.9703207e-20               0               0               0   0.00020287727       5.2618481   6.5391263e-07   1.2427304e-07
    0.044640187       1.0038176    0.0015601549   2.9551722e-20               0               0               0   0.00019621869       5.2622592   6.5412434e-07   1.2430341e-07
    0.050432395       1.0038245     0.001549868   9.8484786e-21               0               0               0    0.0001893598        5.262237    6.541362e-07   1.2430619e-07
    0.056976161       1.0038303    0.0015380566               0               0               0               0   0.00018239832       5.2622294   6.5413297e-07   1.2430576e-07
    0.064369002       1.0038308    0.0015254776               0               0               0               0     0.000175509       5.2622236   6.5413177e-07   1.2430567e-07
    0.072721087       1.0038279    0.0015117688               0               0               0               0    0.0001688448       5.2622135   6.5413016e-07    1.243056e-07
    0.082156882       1.0038227    0.0014970838               0               0               0               0   0.00016249317        5.262196   6.5412761e-07   1.2430553e-07
    0.092817002        1.003815    0.0014811919               0               0               0               0   0.00015653508       5.2621688   6.5412381e-07   1.2430545e-07
