#      distance             U_x             U_y             U_z wallShearStr... wallShearStr... wallShearStr...               p           omega               k             nut
              0      0.99938464               0               0               0               0               0    0.0046624291       42.250318   6.2915877e-06   1.4889302e-07
   0.0021021021      0.99936642               0               0               0               0               0    0.0046806181       42.024825   6.2497426e-06   1.4869505e-07
   0.0042042042       0.9993482               0               0               0               0               0    0.0046988072       41.799332   6.2078975e-06   1.4849708e-07
   0.0063063063      0.99932998               0               0               0               0               0    0.0047169962       41.573839   6.1660524e-06   1.4829911e-07
   0.0084084084      0.99931176               0               0               0               0               0    0.0047351852       41.348345   6.1242074e-06   1.4810114e-07
    0.010510511      0.99929111               0               0               0               0               0    0.0047558007       41.138521   6.0847484e-06   1.4789719e-07
    0.012612613      0.99926894               0               0               0               0               0    0.0047779234        40.93843   6.0467714e-06   1.4768953e-07
    0.014714715      0.99924678               0               0               0               0               0     0.004800046       40.738338   6.0087944e-06   1.4748186e-07
    0.016816817      0.99922461               0               0               0               0               0    0.0048221686       40.538246   5.9708174e-06    1.472742e-07
    0.018918919      0.99920244               0               0               0               0               0    0.0048442912       40.338154   5.9328404e-06   1.4706653e-07
    0.021021021      0.99917965               0               0               0               0               0    0.0048670307       40.140582   5.8952536e-06   1.4685801e-07
    0.023123123       0.9991527               0               0               0               0               0    0.0048939174        39.95995   5.8602897e-06   1.4664374e-07
    0.025225225      0.99912574               0               0               0               0               0     0.004920804       39.779318   5.8253258e-06   1.4642947e-07
    0.027327327      0.99909878               0               0               0               0               0    0.0049476907       39.598686    5.790362e-06   1.4621519e-07
    0.029429429      0.99907182               0               0               0               0               0    0.0049745773       39.418054   5.7553981e-06   1.4600092e-07
    0.031531532      0.99904337               0               0               0               0               0    0.0050029514       39.241332   5.7210472e-06   1.4578548e-07
    0.033633634      0.99901053               0               0               0               0               0    0.0050356698       39.076029    5.688487e-06   1.4556661e-07
    0.035735736       0.9989777               0               0               0               0               0    0.0050683882       38.910726   5.6559268e-06   1.4534775e-07
    0.037837838      0.99894487               0               0               0               0               0    0.0051011067       38.745423   5.6233665e-06   1.4512888e-07
     0.03993994      0.99891204               0               0               0               0               0    0.0051338251        38.58012   5.5908063e-06   1.4491002e-07
    0.042042042      0.99887252               0               0               0               0               0    0.0051731586       38.426101   5.5600327e-06   1.4468819e-07
    0.044144144      0.99883238               0               0               0               0               0     0.005213112        38.27314   5.5294266e-06   1.4446608e-07
    0.046246246      0.99879224               0               0               0               0               0    0.0052530655       38.120179   5.4988204e-06   1.4424397e-07
    0.048348348      0.99875176               0               0               0               0               0    0.0052933541        37.96759   5.4682736e-06   1.4402177e-07
     0.05045045      0.99870238               0               0               0               0               0    0.0053424405       37.824754   5.4392828e-06   1.4379735e-07
    0.052552553        0.998653               0               0               0               0               0    0.0053915269       37.681917    5.410292e-06   1.4357292e-07
    0.054654655      0.99860362               0               0               0               0               0    0.0054406134       37.539081   5.3813012e-06   1.4334849e-07
    0.056756757      0.99854751               0               0               0               0               0    0.0054962847        37.40096   5.3530678e-06   1.4312315e-07
    0.058858859      0.99848609               0               0               0               0               0    0.0055571473       37.266555   5.3254315e-06   1.4289708e-07
    0.060960961      0.99842467               0               0               0               0               0      0.00561801        37.13215   5.2977952e-06   1.4267102e-07
    0.063063063      0.99835652               0               0               0               0               0    0.0056855386       37.000798   5.2706512e-06   1.4244445e-07
    0.065165165      0.99827927               0               0               0               0               0    0.0057620793       36.873574   5.2441728e-06   1.4221719e-07
    0.067267267      0.99820203               0               0               0               0               0      0.00583862       36.746349   5.2176943e-06   1.4198993e-07
    0.069369369       0.9981113               0               0               0               0               0    0.0059277498       36.622616   5.1917862e-06   1.4176225e-07
    0.071471471      0.99801095               0               0               0               0               0    0.0060258556       36.501371   5.1662847e-06   1.4153427e-07
    0.073573574       0.9979106               0               0               0               0               0    0.0061239614       36.380126   5.1407832e-06   1.4130629e-07
    0.075675676      0.99778027               0               0               0               0               0    0.0062537424       36.264874   5.1162338e-06   1.4107753e-07
    0.077777778       0.9976496               0               0               0               0               0    0.0063838831       36.149689   5.0916951e-06   1.4084876e-07
     0.07987988        0.997481               0               0               0               0               0    0.0065431066       36.035498   5.0673724e-06   1.4062007e-07
    0.081981982      0.99728689               0               0               0               0               0     0.006721883       35.921976   5.0431949e-06   1.4039143e-07
    0.084084084      0.99706908               0               0               0               0               0    0.0069362536       35.815058   5.0199856e-06   1.4016293e-07
    0.086186186      0.99681134               0               0               0               0               0    0.0072105825       35.719266   4.9984072e-06   1.3993466e-07
    0.088288288      0.99641557               0  -3.1500194e-22               0               0               0    0.0075247927       35.609518   4.9747935e-06   1.3970293e-07
     0.09039039      0.99565812               0  -1.4554834e-21               0               0               0    0.0079435141       35.463199   4.9458462e-06   1.3946212e-07
    0.092492492      0.99493015               0   7.7348917e-18               0               0               0     0.008555604         39.6738   4.9945515e-06   1.3376482e-07
    0.094594595       0.9942799               0   3.5873905e-17               0               0               0    0.0096775792       55.372984   5.2480159e-06   1.1367953e-07
    0.096696697      0.90625582               0   5.4551316e-17  -0.00046033085  -3.0791977e-06               0     0.010450332       1403645.5   4.9857063e-06   8.8094227e-08
    0.098798799      0.64576489               0   5.4552509e-17   -0.0018293068   -1.223641e-05               0     0.010533756         5577745   3.7053127e-06   5.1652482e-08
      0.1009009      0.38532723               0   4.2302842e-17   -0.0028985248  -1.7532781e-05   8.0163646e-20    0.0096870134       9751064.9   2.3078274e-06   2.3905817e-08
       0.103003      0.12496058               0   1.3718698e-17   -0.0035680655  -1.7681363e-05   2.6721215e-19    0.0076000501        13923345   7.5421996e-07   7.7525918e-09
     0.10510511               0               0               0   -0.0035202864  -1.3031539e-05   4.5559794e-19    0.0059392824        15925793   1.2654005e-08               0
     0.10720721               0               0               0   -0.0028105229  -3.9534699e-06   6.4521783e-19    0.0046718327        15925793   2.0487084e-08               0
     0.10930931               0               0               0   -0.0025147441  -2.0066701e-07   5.6967581e-19    0.0042346766        15925793   2.6468166e-08               0
     0.11141141               0               0               0   -0.0024994466  -5.5816973e-08   3.1448238e-19    0.0043600577        15925793   3.1194491e-08               0
     0.11351351               0               0               0   -0.0024865625  -7.0085797e-09   1.0439352e-19    0.0044865763        15925793   3.3312853e-08               0
     0.11561562               0               0               0    -0.002474943  -8.5309069e-09  -8.2058231e-20    0.0046136911        15925793    3.406451e-08               0
     0.11771772               0               0               0   -0.0024512878  -1.0545692e-08  -8.9150328e-20    0.0046246444        15925793   3.3779815e-08               0
     0.11981982               0               0               0   -0.0024224624  -1.2772018e-08   -1.919639e-20    0.0045856992        15925793   3.3049944e-08               0
     0.12192192               0               0               0   -0.0023919549  -1.3304613e-08               0    0.0045067702        15925793   3.2168725e-08               0
     0.12402402               0               0               0   -0.0023608114  -1.3196643e-08               0    0.0044127194        15925793   3.1230266e-08               0
     0.12612613               0               0               0   -0.0023321343  -1.2568233e-08               0     0.004338156        15925793   3.0381163e-08               0
     0.12822823               0               0               0   -0.0023043525  -1.1750923e-08               0    0.0042706657        15925793   2.9564493e-08               0
     0.13033033               0               0               0    -0.002279462  -1.0948137e-08               0    0.0042225357        15925793   2.8839059e-08               0
     0.13243243               0               0               0   -0.0022556784  -1.0150911e-08               0    0.0041818168        15925793    2.814855e-08               0
     0.13453453               0               0               0   -0.0022341327  -9.4713932e-09  -1.4519549e-19    0.0041446507        15925793   2.7524725e-08               0
     0.13663664               0               0               0   -0.0022135771  -8.8439482e-09  -3.5462278e-19    0.0041090562        15925793     2.69304e-08               0
     0.13873874               0               0               0   -0.0021946458   -8.303902e-09  -4.2931201e-19    0.0040736235        15925793   2.6386427e-08               0
     0.14084084               0               0               0   -0.0021766148  -7.8123035e-09  -4.2931205e-19    0.0040382804        15925793   2.5870366e-08               0
     0.14294294               0               0               0    -0.002159748  -7.3828054e-09  -4.0592457e-19    0.0040043576        15925793   2.5391218e-08               0
     0.14504505               0               0               0   -0.0021437501  -6.9996563e-09  -3.6508168e-19    0.0039714949        15925793   2.4939622e-08               0
     0.14714715               0               0               0   -0.0021284988  -6.6602088e-09  -2.7229947e-19    0.0039399912        15925793   2.4510822e-08               0
     0.14924925               0               0               0   -0.0021140553  -6.3680484e-09  -1.2331657e-19    0.0039099581        15925793   2.4106688e-08               0
     0.15135135               0               0               0   -0.0021000542  -6.0954625e-09  -1.9504911e-20    0.0038807176        15925793   2.3715969e-08               0
     0.15345345               0               0               0   -0.0020868206  -5.8568433e-09   5.9230603e-21    0.0038528526        15925793   2.3348526e-08               0
     0.15555556               0               0               0   -0.0020738314  -5.6245389e-09  -7.6203616e-21    0.0038254113        15925793   2.2988928e-08               0
     0.15765766               0               0               0   -0.0020616714   -5.413653e-09  -1.5334732e-19    0.0037994074        15925793   2.2655943e-08               0
     0.15975976               0               0               0    -0.002049575  -5.2042101e-09  -2.7341052e-19    0.0037735244        15925793   2.2325004e-08               0
     0.16186186               0               0               0   -0.0020383824  -5.0152721e-09   -2.879233e-20    0.0037493598        15925793   2.2023159e-08               0
     0.16396396               0               0               0   -0.0020271898  -4.8263342e-09   2.1582586e-19    0.0037251951        15925793   2.1721314e-08               0
     0.16606607               0               0               0   -0.0020167726  -4.6554742e-09   2.4545775e-19    0.0037026329        15925793   2.1444053e-08               0
     0.16816817               0               0               0   -0.0020064623  -4.4871061e-09   2.4545778e-19    0.0036802916        15925793   2.1170182e-08               0
     0.17027027               0               0               0   -0.0019966751  -4.3330218e-09   1.4115603e-19    0.0036589493        15925793   2.0912538e-08               0
     0.17237237               0               0               0   -0.0019871499  -4.1860965e-09  -1.5420253e-20    0.0036381078        15925793   2.0663027e-08               0
     0.17447447               0               0               0   -0.0019779181  -4.0471893e-09  -1.0519684e-19     0.003617828        15925793   2.0422481e-08               0
     0.17657658               0               0               0   -0.0019690806  -3.9190584e-09  -1.0519685e-19    0.0035983031        15925793   2.0193985e-08               0
     0.17867868               0               0               0   -0.0019603407  -3.7934135e-09  -1.1058654e-19    0.0035789512        15925793   1.9968448e-08               0
     0.18078078               0               0               0   -0.0019521158   -3.680884e-09  -1.4441019e-19    0.0035605119        15925793   1.9758519e-08               0
     0.18288288               0               0               0    -0.001943891  -3.5683545e-09  -1.7823385e-19    0.0035420725        15925793    1.954859e-08               0
     0.18498498               0               0               0   -0.0019361356  -3.4677176e-09  -1.1926744e-19    0.0035245178        15925793   1.9352728e-08               0
     0.18708709               0               0               0   -0.0019284546  -3.3689641e-09  -4.5605825e-20    0.0035071032        15925793   1.9159094e-08               0
     0.18918919               0               0               0   -0.0019210338   -3.276248e-09   3.0164821e-20    0.0034901541        15925793    1.897318e-08               0
     0.19129129               0               0               0    -0.001913837  -3.1887295e-09    1.077511e-19    0.0034736057        15925793   1.8793911e-08               0
     0.19339339               0               0               0   -0.0019067195  -3.1028188e-09   1.5838179e-19    0.0034572068        15925793   1.8616979e-08               0
      0.1954955               0               0               0   -0.0018999618  -3.0242055e-09   8.6662915e-20    0.0034414866        15925793   1.8450651e-08               0
      0.1975976               0               0               0   -0.0018932041  -2.9455922e-09   1.4944036e-20    0.0034257664        15925793   1.8284324e-08               0
      0.1996997               0               0               0   -0.0018867644  -2.8729329e-09               0    0.0034107708        15925793   1.8127224e-08               0
      0.2018018               0               0               0   -0.0018804084  -2.8018407e-09               0     0.003395966        15925793   1.7972553e-08               0
      0.2039039               0               0               0   -0.0018741887  -2.7333964e-09  -2.0238902e-20    0.0033813387        15925793   1.7821793e-08               0
     0.20600601               0               0               0   -0.0018682017  -2.6694708e-09  -7.5017833e-20    0.0033670145        15925793   1.7677709e-08               0
     0.20810811               0               0               0   -0.0018622146  -2.6055453e-09  -1.2979676e-19    0.0033526903        15925793   1.7533625e-08               0
     0.21021021               0               0               0   -0.0018565326  -2.5473034e-09  -1.3457277e-19     0.003338972        15925793   1.7398253e-08               0
     0.21231231               0               0               0   -0.0018508797  -2.4896043e-09   -1.345728e-19    0.0033253116        15925793   1.7263713e-08               0
     0.21441441               0               0               0    -0.001845357  -2.4339918e-09  -1.1220747e-19    0.0033120018        15925793   1.7132829e-08               0
     0.21651652               0               0               0   -0.0018400139  -2.3812562e-09  -5.9006576e-20    0.0032991753        15925793   1.7006988e-08               0
     0.21861862               0               0               0   -0.0018346707  -2.3285205e-09  -5.8056815e-21    0.0032863489        15925793   1.6881146e-08               0
     0.22072072               0               0               0   -0.0018295833  -2.2805741e-09               0    0.0032737655        15925793   1.6762396e-08               0
     0.22282282               0               0               0   -0.0018245273  -2.2332143e-09               0    0.0032612117        15925793   1.6644515e-08               0
     0.22492492               0               0               0   -0.0018195543  -2.1873721e-09               0      0.00324882        15925793   1.6528936e-08               0
     0.22702703               0               0               0   -0.0018147557  -2.1447126e-09               0    0.0032367679        15925793   1.6418186e-08               0
     0.22912913               0               0               0   -0.0018099571  -2.1020531e-09               0    0.0032247159        15925793   1.6307437e-08               0
     0.23123123               0               0               0   -0.0018053306  -2.0616857e-09  -2.7820203e-20    0.0032131778        15925793   1.6201386e-08               0
     0.23333333               0               0               0   -0.0018007728  -2.0222324e-09  -6.6734983e-20    0.0032018448        15925793    1.609721e-08               0
