#      distance             U_x             U_y             U_z wallShearStr... wallShearStr... wallShearStr...               p           omega               k             nut
    0.034013023      0.99914559   5.1181086e-06               0               0               0               0    0.0048603592       69.038343   1.1919973e-05   1.7265713e-07
    0.056204344      0.99878698   9.1989518e-06               0               0               0               0    0.0052204734       62.950793   1.0786209e-05   1.7134343e-07
    0.072112662       0.9983048   1.3732599e-05               0               0               0               0    0.0056575353       59.102535   1.0073292e-05   1.7043752e-07
    0.083516877      0.99780486   3.4043964e-05               0               0               0               0    0.0062229574       56.573779   9.6065784e-06   1.6980618e-07
     0.09169223      0.99666655   6.9473758e-05               0               0               0               0    0.0069968816       54.867483      9.2925e-06    1.693626e-07
    0.097552904      0.99564013   0.00079991592               0    -1.38736e-06  -1.4641546e-09               0    0.0083559346       53.720356   9.0780197e-06   1.6945899e-07
     0.10156632      0.98100927   0.00075532374               0  -4.1316396e-06  -5.6266892e-09               0     0.008756136        99.64936   9.1322278e-06   8.2126543e-08
     0.10474707      0.96809266    0.0013995263               0  -5.4262249e-06  -1.0242535e-08               0    0.0077092383       99.668428   9.5181442e-06   4.4801761e-08
     0.10802554      0.95488169    0.0017584694               0  -5.2983801e-06  -1.3434521e-08               0    0.0065842013       99.668428    1.033737e-05   3.2893277e-08
     0.11140473      0.94079984    0.0020769524               0  -5.1663356e-06   -1.601767e-08               0    0.0060605517       99.820911   1.3442263e-05   3.0182923e-08
     0.11488774      0.92685163    0.0024794694               0  -5.0354456e-06  -1.8462722e-08               0    0.0057237322       467.19402    0.0017675935   3.1760558e-06
     0.11847776      0.91339825    0.0027293569               0  -4.9097909e-06  -2.0031542e-08               0    0.0054646183       658.54264    0.0035110943    5.324546e-06
     0.12217807       0.9004629    0.0027586607               0   -4.790233e-06  -2.0321105e-08               0     0.005256654       782.35687    0.0049552935   6.3251397e-06
     0.12599207      0.88803326    0.0026937614               0  -4.6764243e-06  -1.9790955e-08               0    0.0050678234       862.95426    0.0060288012   6.9764811e-06
     0.12992323      0.87601668    0.0025850415               0  -4.5675414e-06  -1.8873586e-08               0    0.0049060825        913.9641    0.0067625778    7.388704e-06
     0.13397518       0.8643183    0.0024343487               0   -4.462386e-06   -1.771075e-08               0    0.0047722245       944.61154    0.0072237052    7.636362e-06
     0.13815161      0.85273757    0.0022592773               0  -4.3595921e-06  -1.6434256e-08               0     0.004656746       961.55217    0.0074851249   7.4787348e-06
     0.14245635      0.84118623     0.002095008               0  -4.2582284e-06   -1.519441e-08               0    0.0045391754       969.16811    0.0076041652   7.2090321e-06
     0.14689334      0.82963196    0.0019419774               0  -4.1579652e-06  -1.4044771e-08               0    0.0044160251       970.41455    0.0076237377   6.8882376e-06
     0.15146665       0.8180795     0.001798238               0  -4.0588036e-06  -1.2973101e-08               0    0.0042910373       967.31547    0.0075751228   6.5482636e-06
     0.15618046      0.80655224     0.001662443               0  -3.9609416e-06  -1.1964504e-08               0    0.0041664298       961.28449    0.0074809601   6.2095237e-06
     0.16103908      0.79509229    0.0015323191               0  -3.8647498e-06  -1.0994108e-08               0    0.0040433404       953.31375    0.0073574152   5.8849155e-06
     0.16604698       0.7837726    0.0014008637               0  -3.7709096e-06  -1.0038105e-08               0    0.0039238795       944.11256    0.0072160773    5.582823e-06
     0.17120873      0.77274323    0.0012705309               0  -3.6799075e-06  -9.1159631e-09               0    0.0038160226       934.24986    0.0070661004   5.3127257e-06
     0.17652907      0.76188496    0.0011540001               0  -3.5918585e-06  -8.2587296e-09               0    0.0037161693       924.35676    0.0069172433   5.0693522e-06
     0.18201286      0.75137197    0.0010436466               0   -3.507284e-06   -7.455346e-09               0     0.003610996       914.49833    0.0067704838   4.8579293e-06
     0.18766512      0.74126913   0.00093772059               0  -3.4268215e-06  -6.6886605e-09               0    0.0035038938       904.80559    0.0066277249   4.6740263e-06
     0.19349103      0.73163136   0.00083641531               0  -3.3508286e-06  -5.9587202e-09               0    0.0034055804       895.31805    0.0064894612   4.5149828e-06
     0.19949593      0.72251472   0.00074027918               0  -3.2796186e-06  -5.2687053e-09               0    0.0033188616       886.18927    0.0063578013   4.3801249e-06
     0.20568532      0.71396731   0.00065019027               0  -3.2134554e-06  -4.6208666e-09               0     0.003243104       877.56501    0.0062346573   4.2689414e-06
     0.21206485      0.70603185   0.00056543463               0  -3.1525551e-06  -4.0145844e-09               0    0.0031804652        869.5511    0.0061213075   4.1806074e-06
     0.21864039      0.69874809    0.0004861688               0  -3.0970564e-06  -3.4522273e-09               0    0.0031262103       862.21995    0.0060185254    4.114497e-06
     0.22541793      0.69212783   0.00041404824               0  -3.0469396e-06    -2.93952e-09               0    0.0030725947       855.60925    0.0059265903   4.0695274e-06
     0.23240371       0.6861568   0.00034889059               0  -3.0020185e-06  -2.4786592e-09               0    0.0030241615       849.72079     0.005845295   4.0442111e-06
      0.2396041      0.68080833   0.00029063606               0  -2.9620064e-06  -2.0702807e-09               0    0.0029843516       844.52774    0.0057740666   4.0368443e-06
      0.2470257      0.67604629   0.00024022383               0  -2.9265523e-06  -1.7161989e-09               0     0.002951477       839.98267    0.0057120844   4.0455493e-06
     0.25467531      0.67182391   0.00019751706               0  -2.8952567e-06  -1.4147227e-09               0    0.0029239964       836.02347    0.0056583643    4.068282e-06
     0.26255994      0.66809119   0.00016134191               0  -2.8677221e-06   -1.159407e-09               0    0.0029028002       832.58258    0.0056118831   4.1029442e-06
      0.2706868      0.66480881   0.00013060501               0   -2.843589e-06  -9.4416061e-10               0    0.0028865527       829.60081     0.005571759   4.1474861e-06
     0.27906334      0.66193373   0.00010522674               0  -2.8224896e-06  -7.6532543e-10               0    0.0028674252        827.0285    0.0055372605   4.2021049e-06
     0.28769723      0.65940931   8.4369869e-05               0  -2.8039979e-06  -6.1993189e-10               0    0.0028443775       824.80401     0.005507513   4.2654532e-06
     0.29659637      0.65717331   6.8049834e-05               0  -2.7876511e-06  -5.0657065e-10               0    0.0028218782       822.85383    0.0054814997   4.3354938e-06
     0.30576892      0.65516364   5.6573733e-05               0  -2.7729926e-06    -4.23918e-10               0    0.0028010195       821.09957    0.0054581524   4.4098935e-06
     0.31522326      0.65332328   4.9079524e-05               0  -2.7596278e-06  -3.6597765e-10               0    0.0027819236       819.47539    0.0054365806   4.4863428e-06
     0.32496807      0.65161608   4.3597182e-05               0  -2.7472674e-06  -3.2499373e-10               0    0.0027661636       817.93319     0.005416137   4.5634538e-06
     0.33501226      0.65001526   4.0168474e-05               0  -2.7356811e-06   -2.984012e-10               0    0.0027461844       816.43881     0.005396364    4.640216e-06
     0.34536503      0.64848553    3.923224e-05               0  -2.7246247e-06  -2.8610079e-10               0    0.0027172214        814.9615    0.0053768523   4.7155163e-06
     0.35603587      0.64699048   3.9986441e-05               0  -2.7138524e-06  -2.8537564e-10               0    0.0026860562       813.47322    0.0053572314   4.7882454e-06
     0.36703454      0.64550253   4.1944131e-05               0  -2.7031641e-06    -2.92481e-10               0    0.0026569873       811.95222    0.0053372162    4.857529e-06
     0.37837111      0.64400225    4.458121e-05               0  -2.6924239e-06   -3.040015e-10               0    0.0026299112       810.38216    0.0053165946   4.9226546e-06
     0.39005597      0.64248017   4.7324093e-05               0  -2.6815518e-06  -3.1750648e-10               0    0.0026032005       808.75478    0.0052952623   4.9830589e-06
     0.40209982      0.64092951   5.0311314e-05               0  -2.6704896e-06  -3.3325296e-10               0    0.0025717345       807.06678    0.0052731804   5.0384176e-06
     0.41451368      0.63934012    5.406365e-05               0  -2.6591516e-06  -3.5276711e-10               0    0.0025348796        805.3148    0.0052503101   5.0882169e-06
     0.42730893       0.6376902   5.8442176e-05               0  -2.6474155e-06  -3.7530947e-10               0    0.0024976055       803.48798    0.0052265161   5.1340474e-06
     0.44049728      0.63596358    6.271229e-05               0  -2.6351869e-06  -3.9763298e-10               0    0.0024623325       801.57574    0.0052016671   5.1755295e-06
      0.4540908      0.63415958   6.6344002e-05               0  -2.6224501e-06    -4.17133e-10               0    0.0024284427       799.57873    0.0051757796   5.2119282e-06
     0.46810195      0.63228513   6.9448066e-05               0  -2.6092377e-06  -4.3345962e-10               0    0.0023901358       797.50628    0.0051489825   5.2428061e-06
     0.48254356      0.63034376   7.2133578e-05               0  -2.5955831e-06  -4.4678306e-10               0    0.0023464887       795.36742    0.0051213993    5.268071e-06
     0.49742885      0.62833843   7.4179781e-05               0  -2.5815274e-06  -4.5604158e-10               0    0.0023032144       793.16953    0.0050931323   5.2880431e-06
     0.51277145      0.62628134   7.5187233e-05               0  -2.5671577e-06  -4.5974523e-10               0    0.0022646473       790.92502    0.0050643463   5.3034768e-06
     0.52858541      0.62419322   7.5154423e-05               0  -2.5525969e-06  -4.5803633e-10               0    0.0022273797       788.65324    0.0050352937   5.3151908e-06
     0.54488522      0.62208953   7.4555111e-05               0  -2.5379452e-06   -4.527233e-10               0    0.0021858082       786.37013    0.0050061802   5.3240191e-06
     0.56168579      0.61997497   7.3630564e-05               0  -2.5232486e-06  -4.4532737e-10               0    0.0021421252       784.08099    0.0049770746   5.3309011e-06
     0.57900252       0.6178507   7.2424315e-05               0  -2.5085317e-06  -4.3624287e-10               0    0.0021007772       781.78669    0.0049479885   5.3363509e-06
     0.59685126      0.61572353   7.0874071e-05               0  -2.4938341e-06  -4.2563674e-10               0    0.0020619807       779.49184    0.0049189809   5.3406479e-06
     0.61524836      0.61360136   6.9188089e-05               0  -2.4791961e-06  -4.1432432e-10               0    0.0020210161       777.20382    0.0048901442    5.343874e-06
     0.63421066      0.61148484   6.7579599e-05               0  -2.4646348e-06  -4.0287617e-10               0    0.0019767511       774.92603    0.0048615206   5.3459635e-06
     0.65375553      0.60937489    6.580458e-05               0  -2.4501681e-06   -3.907582e-10               0    0.0019344384       772.66054    0.0048331352   5.3469905e-06
     0.67390086      0.60727954   6.3758861e-05               0  -2.4358374e-06  -3.7759928e-10               0    0.0018944076       770.41327    0.0048050603   5.3472109e-06
     0.69466511       0.6052064   6.1631375e-05               0  -2.4216813e-06  -3.6406722e-10               0     0.001852754       768.19036      0.00477737   5.3468207e-06
     0.71606728      0.60315512   5.9611129e-05               0   -2.407711e-06  -3.5068227e-10               0    0.0018090011       765.99236    0.0047500688    5.345869e-06
     0.73812698      0.60112609   5.7487979e-05               0  -2.3939341e-06  -3.3721291e-10               0    0.0017677002       763.81893    0.0047231499   5.3444654e-06
     0.76086441      0.59912394   5.5319809e-05               0  -2.3803618e-06  -3.2394358e-10               0    0.0017270921       761.67058    0.0046966168   5.3429144e-06
     0.78430038       0.5971464   5.3401524e-05               0  -2.3669817e-06  -3.1166431e-10               0    0.0016832814       759.54431      0.00467043   5.3412373e-06
     0.80845637      0.59518665   5.1653089e-05               0  -2.3537647e-06   -3.003008e-10               0    0.0016392862       757.43473    0.0046445214   5.3392845e-06
     0.83335448      0.59324408   4.9894511e-05               0  -2.3407018e-06  -2.8929014e-10               0    0.0015970507       755.34128    0.0046188823   5.3370053e-06
     0.85901753      0.59132194    4.817421e-05               0  -2.3277982e-06  -2.7867225e-10               0    0.0015535573       753.26736    0.0045935525   5.3343667e-06
       0.885469       0.5894179   4.6614902e-05               0  -2.3150505e-06  -2.6849754e-10               0    0.0015075963       751.21272    0.0045685271   5.3312665e-06
     0.91273313      0.58753197   4.4963927e-05               0  -2.3024648e-06  -2.5829264e-10               0    0.0014640818       749.17761    0.0045438073   5.3277862e-06
     0.94083488       0.5856706   4.3259501e-05               0  -2.2900586e-06  -2.4817717e-10               0    0.0014205951         747.167    0.0045194508   5.3240477e-06
     0.96979998      0.58383188   4.1764029e-05               0  -2.2778272e-06   -2.386726e-10               0    0.0013734006       745.17901    0.0044954332   5.3200322e-06
     0.99965496      0.58201108   4.0293173e-05               0  -2.2657545e-06  -2.2960477e-10               0    0.0013279572       743.20833     0.004471688   5.3157912e-06
      1.0304272      0.58021033   3.8823228e-05               0  -2.2538346e-06  -2.2091071e-10               0    0.0012832129       741.25537    0.0044482184   5.3114031e-06
      1.0621447      0.57842721   3.7547012e-05               0  -2.2420569e-06  -2.1280931e-10               0    0.0012347363       739.31902    0.0044250097   5.3067403e-06
      1.0948368      0.57665834    3.627366e-05               0  -2.2304125e-06  -2.0496123e-10               0    0.0011873106       737.39752    0.0044020391   5.3017534e-06
      1.1285332      0.57490809   3.4945043e-05               0  -2.2189103e-06  -1.9718587e-10               0    0.0011407394       735.49457    0.0043793493   5.2965446e-06
      1.1632648      0.57317697   3.3739215e-05               0  -2.2075552e-06   -1.897141e-10               0    0.0010909841       733.61157    0.0043569552    5.291079e-06
      1.1990635      0.57146298   3.2531886e-05               0  -2.1963445e-06  -1.8246488e-10               0    0.0010423423       731.74641      0.00433483   5.2853953e-06
       1.235962      0.56976844   3.1328937e-05               0   -2.185277e-06  -1.7548481e-10               0   0.00099400179       729.89943    0.0043129759   5.2796008e-06
      1.2739941      0.56809047   3.0277913e-05               0  -2.1743412e-06  -1.6897975e-10               0    0.0009423387       728.06817    0.0042913622   5.2736202e-06
      1.3131947      0.56642594   2.9236056e-05               0  -2.1635253e-06  -1.6275455e-10               0   0.00089162602       726.25036    0.0042699611     5.26742e-06
      1.3535996      0.56477711    2.819863e-05               0  -2.1528314e-06  -1.5666719e-10               0   0.00084084652       724.44814    0.0042487961    5.261049e-06
      1.3952458      0.56314429   2.7217276e-05               0   -2.142264e-06   -1.507723e-10               0   0.00078821513       722.66258    0.0042278785   5.2544945e-06
      1.4381715      0.56152778   2.6236293e-05               0  -2.1318226e-06  -1.4509095e-10               0   0.00073598003        720.8938    0.0042072083   5.2477907e-06
       1.482416      0.55992667   2.5328751e-05               0   -2.121501e-06  -1.3967965e-10               0   0.00068246315       719.14019    0.0041867653   5.2409503e-06
      1.5280198      0.55833916   2.4448162e-05               0  -2.1112925e-06  -1.3450761e-10               0   0.00062910798       717.39986    0.0041665261   5.2339755e-06
      1.5750246      0.55676586   2.3593331e-05               0  -2.1011933e-06  -1.2954719e-10               0   0.00057528683       715.67341    0.0041464966   5.2268719e-06
      1.6234735      0.55520541    2.279527e-05               0  -2.0912008e-06  -1.2479862e-10               0   0.00052004821       713.96036    0.0041266701   5.2196108e-06
      1.6734109      0.55365852   2.1995143e-05               0  -2.0813113e-06  -1.2023067e-10               0   0.00046613071       712.26151    0.0041070549   5.2122146e-06
      1.7248825      0.55212328   2.1256992e-05               0  -2.0715234e-06  -1.1592307e-10               0    0.0004114671        710.5746    0.0040876235    5.204711e-06
      1.7779355      0.55060216   2.0567591e-05               0  -2.0618085e-06   -1.119002e-10               0   0.00035955712        708.9014    0.0040683957   5.1970181e-06
      1.8326183      0.54907436   1.9927816e-05               0  -2.0522113e-06    -1.07938e-10               0   0.00030526213       707.22337    0.0040491577   5.1892893e-06
      1.8889812      0.54760756   1.9138622e-05               0  -2.0426092e-06  -1.4330349e-10               0   0.00027278858        705.5995    0.0040305888   5.1814426e-06
      1.9470756      0.54600965   5.0236944e-05               0  -2.0330316e-06  -2.7380754e-10               0   0.00016191308       703.86186    0.0040107545   5.1728871e-06
      2.0069548      0.54461647   9.4274316e-05               0  -2.0227886e-06   -4.152155e-10               0   0.00035891205       702.32813    0.0039932918   5.1610214e-06
