#      distance             U_x             U_y             U_z wallShearStr... wallShearStr... wallShearStr...               p           omega               k             nut
    0.034013023        0.999147   5.1121039e-06               0               0               0               0    0.0048682834       69.038371   1.1919979e-05   1.7265714e-07
    0.056204344      0.99878871   9.1909294e-06               0               0               0               0    0.0052278372       62.950826   1.0786215e-05   1.7134344e-07
    0.072112662      0.99830679   1.3727591e-05               0               0               0               0    0.0056644719       59.102572   1.0073299e-05   1.7043754e-07
    0.083516877      0.99780695   3.4022227e-05               0               0               0               0    0.0062296243        56.57382   9.6065863e-06    1.698062e-07
     0.09169223      0.99666916   6.9422962e-05               0               0               0               0    0.0070034457       54.867526   9.2925083e-06   1.6936261e-07
    0.097552904      0.99564167   0.00080411035               0  -1.3873691e-06  -1.4655236e-09               0    0.0083625583       53.720275   9.0779792e-06    1.694585e-07
     0.10156632      0.98101305   0.00075604973               0  -4.1316645e-06  -5.6298433e-09               0    0.0087628057        99.64936   9.1321736e-06   8.2132776e-08
     0.10474707      0.96809547    0.0013997446               0  -5.4262539e-06  -1.0244765e-08               0    0.0077161662       99.668428   9.5180798e-06   4.4802014e-08
     0.10802554      0.95488439    0.0017584812               0   -5.298406e-06  -1.3434955e-08               0    0.0065915125       99.668428    1.033729e-05   3.2893206e-08
     0.11140473      0.94080251     0.002076927               0  -5.1663609e-06  -1.6017326e-08               0    0.0060682602       99.820912   1.3442173e-05   3.0182801e-08
     0.11488774      0.92685431    0.0024793023               0  -5.0354707e-06  -1.8461747e-08               0    0.0057318536        467.1955    0.0017676026   3.1760774e-06
     0.11847776      0.91340094    0.0027291567               0  -4.9098159e-06  -2.0030232e-08               0    0.0054731209       658.54483    0.0035111134   5.3245573e-06
     0.12217807       0.9004656    0.0027584751               0  -4.7902579e-06  -2.0319806e-08               0    0.0052654925       782.35954    0.0049553214   6.3251537e-06
     0.12599207        0.888036    0.0026935777               0  -4.6764492e-06  -1.9789705e-08               0    0.0050769313       862.95727     0.006028836   6.9764971e-06
     0.12992323      0.87601944    0.0025848604               0  -4.5675664e-06  -1.8872367e-08               0    0.0049153761       913.96734    0.0067626179   7.3887215e-06
     0.13397518      0.86432112     0.002434172               0  -4.4624113e-06  -1.7709578e-08               0    0.0047816193       944.61496    0.0072237492    7.636381e-06
     0.13815161      0.85274049    0.0022591115               0  -4.3596179e-06  -1.6433152e-08               0    0.0046661517       961.55569    0.0074851715   7.4787812e-06
     0.14245635      0.84118925    0.0020948517               0  -4.2582547e-06  -1.5193386e-08               0    0.0045485136       969.17171    0.0076042139   7.2090794e-06
     0.14689334       0.8296351    0.0019418338               0  -4.1579923e-06  -1.4043841e-08               0    0.0044252253       970.41825    0.0076237882    6.888286e-06
     0.15146665      0.81808276    0.0017981113               0  -4.0588316e-06  -1.2972281e-08               0    0.0043000437       967.31926     0.007575175    6.548313e-06
     0.15618046      0.80655565    0.0016623326               0  -3.9609705e-06  -1.1963809e-08               0     0.004175198       961.28838     0.007481014   6.2095739e-06
     0.16103908      0.79509587    0.0015322316               0  -3.8647796e-06  -1.0993525e-08               0    0.0040518451       953.31775    0.0073574708   5.8849667e-06
     0.16604698      0.78377632    0.0014007802               0  -3.7709404e-06  -1.0037604e-08               0    0.0039321107       944.11668    0.0072161347    5.582875e-06
     0.17120873      0.77274711    0.0012704647               0  -3.6799393e-06  -9.1155618e-09               0     0.003823981        934.2541    0.0070661596   5.3127785e-06
     0.17652907      0.76188902    0.0011539559               0  -3.5918912e-06  -8.2584636e-09               0    0.0037238669       924.36112    0.0069173042   5.0694062e-06
     0.18201286      0.75137616    0.0010436248               0  -3.5073175e-06  -7.4552172e-09               0    0.0036184535       914.50279    0.0067705463   4.8579829e-06
     0.18766512      0.74127341   0.00093771769               0  -3.4268554e-06  -6.6886516e-09               0    0.0035111383       904.81013    0.0066277886    4.674078e-06
     0.19349103      0.73163572   0.00083642817               0  -3.3508627e-06  -5.9588079e-09               0    0.0034126418       895.32263    0.0064895256   4.5150316e-06
     0.19949593      0.72251909    0.0007403036               0  -3.2796526e-06  -5.2688636e-09               0    0.0033257722       886.19386     0.006357866   4.3801698e-06
     0.20568532      0.71397168   0.00065022201               0  -3.2134891e-06   -4.621069e-09               0    0.0032498946       877.56958    0.0062347217    4.268982e-06
     0.21206485      0.70603621   0.00056547018               0  -3.1525884e-06  -4.0148077e-09               0    0.0031871642       869.55564    0.0061213714   4.1806433e-06
     0.21864039      0.69875242   0.00048620483               0  -3.0970894e-06  -3.4524528e-09               0    0.0031328416       862.22445    0.0060185884   4.1145282e-06
     0.22541793      0.69213214   0.00041408275               0  -3.0469721e-06  -2.9397347e-09               0    0.0030791776       855.61371    0.0059266524   4.0695541e-06
     0.23240371      0.68616108   0.00034892237               0  -3.0020506e-06  -2.4788531e-09               0    0.0030307094       849.72521    0.0058453563   4.0442338e-06
      0.2396041       0.6808126   0.00029066281               0  -2.9620382e-06  -2.0704445e-09               0    0.0029908718       844.53215    0.0057741273   4.0368636e-06
      0.2470257      0.67605056   0.00024024498               0  -2.9265839e-06  -1.7163276e-09               0    0.0029579724       839.98707    0.0057121446   4.0455658e-06
     0.25467531      0.67182821   0.00019753231               0  -2.8952883e-06  -1.4148156e-09               0    0.0029304657       836.02787    0.0056584244   4.0682962e-06
     0.26255994      0.66809551   0.00016135144               0  -2.8677537e-06  -1.1594658e-09               0    0.0029092384       832.58699    0.0056119434   4.1029565e-06
      0.2706868      0.66481317   0.00013060931               0  -2.8436209e-06  -9.4418819e-10               0    0.0028929515       829.60523    0.0055718195   4.1474971e-06
     0.27906334      0.66193813   0.00010522647               0  -2.8225217e-06  -7.6532579e-10               0    0.0028737746       827.03294    0.0055373215    4.202115e-06
     0.28769723      0.65941378   8.4365809e-05               0  -2.8040304e-06  -6.1990986e-10               0    0.0028506656       824.80846    0.0055075745   4.2654626e-06
     0.29659637      0.65717784     6.80428e-05               0  -2.7876839e-06  -5.0653172e-10               0    0.0028280925       822.85829    0.0054815618   4.3355027e-06
     0.30576892      0.65516823   5.6564665e-05               0  -2.7730258e-06  -4.2386724e-10               0     0.002807148       821.10404    0.0054582151    4.409902e-06
     0.31522326      0.65332792   4.9069086e-05               0  -2.7596613e-06  -3.6591913e-10               0    0.0027879558       819.47985    0.0054366439   4.4863509e-06
     0.32496807      0.65162078   4.3585987e-05               0  -2.7473014e-06  -3.2493103e-10               0    0.0027720902       817.93764    0.0054162009   4.5634615e-06
     0.33501226      0.65002001   4.0157088e-05               0  -2.7357153e-06  -2.9833754e-10               0    0.0027519967       816.44324    0.0053964282   4.6402234e-06
     0.34536503      0.64849032   3.9221012e-05               0  -2.7246591e-06  -2.8603843e-10               0    0.0027229136       814.96589    0.0053769169   4.7155234e-06
     0.35603587       0.6469953   3.9975625e-05               0  -2.7138868e-06  -2.8531624e-10               0    0.0026916234       813.47757    0.0053572961   4.7882524e-06
     0.36703454      0.64550737   4.1934032e-05               0  -2.7031986e-06  -2.9242609e-10               0    0.0026624249       811.95652     0.005337281   4.8575358e-06
     0.37837111       0.6440071   4.4572075e-05               0  -2.6924585e-06  -3.0395252e-10               0    0.0026352166        810.3864    0.0053166592   4.9226614e-06
     0.39005597      0.64248502   4.7316119e-05               0  -2.6815863e-06  -3.1746484e-10               0    0.0026083727       808.75894    0.0052953266   4.9830655e-06
     0.40209982      0.64093433   5.0304785e-05               0  -2.6705238e-06  -3.3321979e-10               0    0.0025767732       807.07084    0.0052732442    5.038424e-06
     0.41451368       0.6393449   5.4058643e-05               0  -2.6591855e-06  -3.5274281e-10               0    0.0025397859       805.31874    0.0052503731   5.0882233e-06
     0.42730893      0.63769494   5.8438707e-05               0  -2.6474491e-06  -3.7529459e-10               0    0.0025023805       803.49179     0.005226578    5.134053e-06
     0.44049728      0.63596825   6.2710689e-05               0  -2.6352199e-06  -3.9762883e-10               0    0.0024669764       801.57941    0.0052017278   5.1755347e-06
      0.4540908      0.63416416   6.6344462e-05               0  -2.6224824e-06  -4.1714078e-10               0    0.0024329567       799.58224    0.0051758388   5.2119331e-06
     0.46810195       0.6322896   6.9450731e-05               0  -2.6092692e-06  -4.3347945e-10               0    0.0023945219        797.5096      0.00514904   5.2428108e-06
     0.48254356      0.63034811   7.2138162e-05               0  -2.5956136e-06  -4.4681366e-10               0    0.0023507503       795.37054    0.0051214548   5.2680755e-06
     0.49742885      0.62834262   7.4185928e-05               0  -2.5815568e-06  -4.5608133e-10               0    0.0023073544       793.17243    0.0050931854   5.2880475e-06
     0.51277145      0.62628538   7.5194854e-05               0  -2.5671858e-06  -4.5979297e-10               0    0.0022686671        790.9277    0.0050643969   5.3034809e-06
     0.52858541      0.62419706   7.5163249e-05               0  -2.5526238e-06  -4.5809077e-10               0    0.0022312822       788.65569    0.0050353415   5.3151946e-06
     0.54488522      0.62209317   7.4564887e-05               0  -2.5379706e-06  -4.5278269e-10               0     0.002189597       786.37233    0.0050062251   5.3240222e-06
     0.56168579      0.61997839   7.3640928e-05               0  -2.5232724e-06  -4.4539004e-10               0    0.0021458048       784.08294    0.0049771165   5.3309035e-06
     0.57900252      0.61785389   7.2435092e-05               0  -2.5085538e-06  -4.3630787e-10               0    0.0021043519       781.78838    0.0049480272   5.3363527e-06
     0.59685126      0.61572648   7.0885263e-05               0  -2.4938545e-06  -4.2570377e-10               0    0.0020654547       779.49327    0.0049190162   5.3406491e-06
     0.61524836      0.61360405   6.9199703e-05               0  -2.4792146e-06  -4.1439309e-10               0    0.0020243944       777.20498     0.004890176   5.3438747e-06
     0.63421066      0.61148726   6.7591462e-05               0  -2.4646515e-06  -4.0294604e-10               0    0.0019800401       774.92691    0.0048615488   5.3459637e-06
     0.65375553      0.60937705   6.5816581e-05               0  -2.4501828e-06  -3.9082871e-10               0     0.001937644       772.66116    0.0048331597   5.3469902e-06
     0.67390086      0.60728141   6.3771087e-05               0  -2.4358503e-06  -3.7767049e-10               0    0.0018975348       770.41363    0.0048050811   5.3472101e-06
     0.69466511      0.60520799   6.1643803e-05               0  -2.4216921e-06  -3.6413885e-10               0     0.001855809       768.19047    0.0047773871   5.3468194e-06
     0.71606728      0.60315642   5.9623571e-05               0  -2.4077199e-06  -3.5075345e-10               0    0.0018119905       765.99222    0.0047500823   5.3458673e-06
     0.73812698      0.60112712   5.7500277e-05               0  -2.3939411e-06  -3.3728295e-10               0    0.0017706297       763.81856    0.0047231598   5.3444631e-06
     0.76086441       0.5991247   5.5331958e-05               0   -2.380367e-06  -3.2401213e-10               0    0.0017299666          761.67    0.0046966232   5.3429116e-06
     0.78430038      0.59714689   5.3413372e-05               0   -2.366985e-06  -3.1173064e-10               0    0.0016861061       759.54353    0.0046704331   5.3412342e-06
     0.80845637       0.5951869   5.1664441e-05               0  -2.3537664e-06  -3.0036403e-10               0    0.0016420658       757.43377    0.0046445214   5.3392811e-06
     0.83335448       0.5932441   4.9905265e-05               0   -2.340702e-06  -2.8934984e-10               0    0.0015997886       755.34017    0.0046188795   5.3370018e-06
     0.85901753      0.59132174    4.818437e-05               0  -2.3277969e-06  -2.7872785e-10               0    0.0015562565       753.26612    0.0045935471   5.3343631e-06
       0.885469       0.5894175   4.6624158e-05               0  -2.3150479e-06  -2.6854799e-10               0    0.0015102596       751.21138    0.0045685194    5.331263e-06
     0.91273313      0.58753142   4.4972137e-05               0  -2.3024612e-06  -2.5833731e-10               0    0.0014667106        749.1762    0.0045437977   5.3277829e-06
     0.94083488       0.5856699   4.3266717e-05               0   -2.290054e-06  -2.4821582e-10               0    0.0014231894       747.16555    0.0045194397   5.3240446e-06
     0.96979998      0.58383108   4.1770054e-05               0   -2.277822e-06  -2.3870469e-10               0    0.0013759605       745.17757     0.004495421   5.3200294e-06
     0.99965496       0.5820102   4.0297934e-05               0  -2.2657487e-06  -2.2962995e-10               0    0.0013304813       743.20691     0.004471675   5.3157887e-06
      1.0304272      0.58020942   3.8826748e-05               0  -2.2538286e-06  -2.2092901e-10               0    0.0012856992       741.25399    0.0044482051   5.3114009e-06
      1.0621447      0.57842627   3.7549277e-05               0  -2.2420507e-06  -2.1282076e-10               0    0.0012371827       739.31773    0.0044249964   5.3067387e-06
      1.0948368      0.57665742   3.6274668e-05               0  -2.2304064e-06  -2.0496599e-10               0     0.001189714       737.39633    0.0044020263   5.3017523e-06
      1.1285332      0.57490722    3.494489e-05               0  -2.2189046e-06   -1.971844e-10               0     0.001143096       735.49351    0.0043793373   5.2965441e-06
      1.1632648      0.57317617      3.3738e-05               0    -2.20755e-06  -1.8970702e-10               0    0.0010932899       733.61065    0.0043569442   5.2910792e-06
      1.1990635      0.57146228   3.2529724e-05               0  -2.1963399e-06  -1.8245292e-10               0    0.0010445925       731.74565    0.0043348204   5.2853964e-06
       1.235962      0.56976785   3.1326011e-05               0  -2.1852731e-06  -1.7546883e-10               0   0.00099619109       729.89884    0.0043129678   5.2796027e-06
      1.2739941      0.56809001   3.0274357e-05               0  -2.1743382e-06  -1.6896056e-10               0   0.00094446137       728.06773    0.0042913558   5.2736231e-06
      1.3131947      0.56642562   2.9232032e-05               0  -2.1635232e-06  -1.6273311e-10               0   0.00089367566       726.25008    0.0042699564   5.2674239e-06
      1.3535996      0.56477693   2.8194359e-05               0  -2.1528302e-06  -1.5664449e-10               0   0.00084281629         724.448    0.0042487931    5.261054e-06
      1.3952458      0.56314425   2.7212893e-05               0  -2.1422637e-06  -1.5074927e-10               0   0.00079009793       722.66257    0.0042278772   5.2545007e-06
      1.4381715      0.56152786   2.6231994e-05               0   -2.131823e-06  -1.4506851e-10               0   0.00073776809        720.8939    0.0042072085   5.2477983e-06
       1.482416      0.55992687   2.5324725e-05               0  -2.1215022e-06   -1.396587e-10               0   0.00068414852       719.14039    0.0041867668   5.2409593e-06
      1.5280198      0.55833946   2.4444536e-05               0  -2.1112943e-06  -1.3448889e-10               0   0.00063068231       717.40012    0.0041665287   5.2339859e-06
      1.5750246      0.55676624   2.3590244e-05               0  -2.1011957e-06   -1.295312e-10               0    0.0005767418       715.67371    0.0041464999   5.2268838e-06
      1.6234735      0.55520585   2.2792717e-05               0  -2.0912035e-06  -1.2478548e-10               0    0.0005213761       713.96068    0.0041266741   5.2196242e-06
      1.6734109        0.553659   2.1993113e-05               0  -2.0813144e-06  -1.2022039e-10               0   0.00046732372       712.26183    0.0041070592   5.2122294e-06
      1.7248825      0.55212379   2.1255554e-05               0  -2.0715267e-06  -1.1591417e-10               0   0.00041251721       710.57491     0.004087628   5.2047269e-06
      1.7779355      0.55060269   2.0565409e-05               0  -2.0618117e-06  -1.1190867e-10               0   0.00036045777       708.90171    0.0040684004   5.1970357e-06
      1.8326183       0.5490748   1.9940415e-05               0  -2.0522146e-06   -1.079248e-10               0   0.00030599729       707.22359    0.0040491613   5.1893081e-06
      1.8889812      0.54760822   1.9105195e-05               0  -2.0426132e-06  -1.4284779e-10               0   0.00027337346       705.60031     0.004030595   5.1814608e-06
      1.9470756      0.54601038   4.9924112e-05               0  -2.0330353e-06  -2.7256169e-10               0   0.00016235865       703.86185    0.0040107603   5.1729085e-06
      2.0069548      0.54461663   9.3927979e-05               0  -2.0227902e-06  -4.1426939e-10               0   0.00035910774       702.32767    0.0039932923   5.1610436e-06
