#      distance             U_x             U_y             U_z               p           omega               k             nut
  5.5511169e-17      0.99946004   3.4811717e-22               0    0.0045654238       82.608727    1.447826e-05    1.750388e-07
   0.0021021021      0.99944406   3.4811717e-22               0    0.0045810086        81.76455   1.4318683e-05   1.7489775e-07
   0.0042042042      0.99942807   3.4811717e-22               0    0.0045965935       80.920372   1.4159107e-05   1.7475669e-07
   0.0063063063      0.99941208   3.4811717e-22               0    0.0046121783       80.076195    1.399953e-05   1.7461564e-07
   0.0084084084       0.9993961   3.4811717e-22               0    0.0046277632       79.232017   1.3839954e-05   1.7447458e-07
    0.010510511      0.99938011   3.4811717e-22               0     0.004643348        78.38784   1.3680378e-05   1.7433353e-07
    0.012612613      0.99936412   3.4811717e-22               0    0.0046589329       77.543662   1.3520801e-05   1.7419248e-07
    0.014714715      0.99934814   3.4811717e-22               0    0.0046745178       76.699485   1.3361225e-05   1.7405142e-07
    0.016816817      0.99933215   3.4811717e-22               0    0.0046901026       75.855307   1.3201648e-05   1.7391037e-07
    0.018918919      0.99931616   3.4811717e-22               0    0.0047056875       75.011129   1.3042072e-05   1.7376931e-07
    0.021021021      0.99930018   3.4811717e-22               0    0.0047212723       74.166952   1.2882495e-05   1.7362826e-07
    0.023123123      0.99927358     5.68353e-22               0     0.004747526         73.4987    1.275739e-05   1.7349593e-07
    0.025225225      0.99924663     5.68353e-22               0    0.0047741286         72.8362   1.2633412e-05   1.7336389e-07
    0.027327327      0.99921968     5.68353e-22               0    0.0048007312         72.1737   1.2509434e-05   1.7323186e-07
    0.029429429      0.99919273     5.68353e-22               0    0.0048273338         71.5112   1.2385455e-05   1.7309982e-07
    0.031531532      0.99916578     5.68353e-22               0    0.0048539363         70.8487   1.2261477e-05   1.7296778e-07
    0.033633634      0.99913883     5.68353e-22               0    0.0048805389         70.1862   1.2137499e-05   1.7283574e-07
    0.035735736      0.99911188     5.68353e-22               0    0.0049071415         69.5237   1.2013521e-05    1.727037e-07
    0.037837838      0.99908493     5.68353e-22               0     0.004933744       68.861201   1.1889542e-05   1.7257166e-07
     0.03993994      0.99905799     5.68353e-22               0    0.0049603466       68.198701   1.1765564e-05   1.7243962e-07
    0.042042042      0.99903104     5.68353e-22               0    0.0049869492       67.536201   1.1641586e-05   1.7230758e-07
    0.044144144      0.99900409     5.68353e-22               0    0.0050135518       66.873701   1.1517608e-05   1.7217554e-07
    0.046246246      0.99897714     5.68353e-22               0    0.0050401543       66.211201   1.1393629e-05    1.720435e-07
    0.048348348      0.99893631   1.0219083e-21               0     0.005079192       65.615144   1.1282567e-05    1.719156e-07
     0.05045045      0.99888866   1.0219083e-21               0     0.005124335       65.051708   1.1177847e-05   1.7178972e-07
    0.052552553      0.99884102   1.0219083e-21               0     0.005169478       64.488272   1.1073126e-05   1.7166385e-07
    0.054654655      0.99879337   1.0219083e-21               0     0.005214621       63.924836   1.0968406e-05   1.7153797e-07
    0.056756757      0.99874573   1.0219083e-21               0    0.0052597641         63.3614   1.0863685e-05    1.714121e-07
    0.058858859      0.99869808   1.0219083e-21               0    0.0053049071       62.797964   1.0758965e-05   1.7128622e-07
    0.060960961      0.99865044   1.0219083e-21               0    0.0053500501       62.234528   1.0654244e-05   1.7116035e-07
    0.063063063      0.99860279   1.0219083e-21               0    0.0053951931       61.671092   1.0549524e-05   1.7103447e-07
    0.065165165      0.99855514   1.0219083e-21               0    0.0054403361       61.107656   1.0444803e-05    1.709086e-07
    0.067267267      0.99848185   1.5266761e-21               0    0.0055146315       60.594629   1.0349831e-05   1.7078637e-07
    0.069369369       0.9984042   1.5266761e-21               0    0.0055938757       60.090158   1.0256513e-05   1.7066476e-07
    0.071471471      0.99832655   1.5266761e-21               0    0.0056731198       59.585688   1.0163196e-05   1.7054315e-07
    0.073573574       0.9982489   1.5266761e-21               0     0.005752364       59.081218   1.0069878e-05   1.7042154e-07
    0.075675676      0.99817125   1.5266761e-21               0    0.0058316081       58.576747   9.9765605e-06   1.7029992e-07
    0.077777778       0.9980936   1.5266761e-21               0    0.0059108523       58.072277   9.8832429e-06   1.7017831e-07
     0.07987988      0.99796078   3.7836501e-21               0    0.0060267522       57.587666   9.7937534e-06    1.700583e-07
    0.081981982      0.99778004   3.7836501e-21               0    0.0061745025       57.120312   9.7075901e-06   1.6993968e-07
    0.084084084      0.99759929   3.7836501e-21               0    0.0063222529       56.652958   9.6214268e-06   1.6982105e-07
    0.086186186      0.99741855   3.7836501e-21               0    0.0064700032       56.185603   9.5352635e-06   1.6970243e-07
    0.088288288       0.9972374   7.7221955e-21               0     0.006618582       55.718364   9.4491221e-06   1.6958381e-07
     0.09039039      0.99696757   7.7221955e-21               0    0.0069470352       55.276096   9.3677333e-06    1.694667e-07
    0.092492492      0.99669773   7.7221955e-21               0    0.0072754884       54.833828   9.2863445e-06   1.6934958e-07
    0.094594595       0.9964279   7.7221955e-21               0    0.0076039415        54.39156   9.2049558e-06   1.6923247e-07
    0.096696697      0.83437477    8.954447e-20               0    0.0079699188       61.565478   9.1590865e-06   3.3090292e-07
    0.098798799      0.62033448    8.954447e-20               0     0.008347954       71.186767   9.1246311e-06   5.4456191e-07
      0.1009009      0.35480046   8.4102635e-20               0    0.0084709962       83.294463   9.1682158e-06   8.0792584e-07
       0.103003     0.020608143   8.4102635e-20               0    0.0082540479       98.717367   9.3158541e-06    1.137563e-06
     0.10510511   1.0765889e-16    1.556766e-19               0    0.0075772661       99.668428   9.6928966e-06   1.1498811e-06
     0.10720721   1.0618972e-16   1.9556451e-19               0    0.0069453387       99.668428   1.0333499e-05   1.1412336e-06
     0.10930931   1.0618972e-16   1.9556451e-19               0    0.0064249428       99.668428   1.1343254e-05   1.1324198e-06
     0.11141141   1.0462373e-16   2.3097619e-19               0    0.0061151589       191.92645   0.00045255493    1.123611e-06
     0.11351351   1.0307259e-16   2.7572157e-19               0    0.0058680711       314.57957    0.0010849042   1.1148837e-06
     0.11561562   1.0307259e-16   2.7572157e-19               0    0.0056912238         480.724    0.0021249035   1.1065051e-06
     0.11771772   1.0157649e-16   3.0350525e-19               0    0.0055357949       608.83968    0.0031039707   1.0983926e-06
     0.11981982   1.0157649e-16   3.0350525e-19               0    0.0054013378       699.71943    0.0040233761   1.0905407e-06
     0.12192192   1.0013799e-16   3.0676474e-19               0    0.0052851102       764.60583    0.0047769525   1.0830807e-06
     0.12402402   1.0013799e-16   3.0676474e-19               0    0.0051742785       821.79829    0.0054814441   1.0757368e-06
     0.12612613   9.8755734e-17   2.9954692e-19               0    0.0050789983       857.85218    0.0059753372   1.0688431e-06
     0.12822823   9.7419413e-17   2.8745623e-19               0    0.0049864253       891.54578    0.0064408225   1.0620118e-06
     0.13033033   9.7419413e-17   2.8745623e-19               0    0.0049086429       913.05099    0.0067555227   1.0555121e-06
     0.13243243   9.6118483e-17    2.706982e-19               0    0.0048343039       932.27145    0.0070384237   1.0490839e-06
     0.13453453   9.6118483e-17    2.706982e-19               0    0.0047706071       944.43048    0.0072230434   1.0428766e-06
     0.13663664   9.4830641e-17   2.5123007e-19               0    0.0047086033       954.84246     0.007381679   1.0367288e-06
     0.13873874   9.4830641e-17   2.5123007e-19               0    0.0046507908       960.92964    0.0074759908   1.0307281e-06
     0.14084084    9.354607e-17   2.3296314e-19               0     0.004592933       965.94519    0.0075537846   1.0247732e-06
     0.14294294    9.354607e-17   2.3296314e-19               0    0.0045349534       968.07636     0.007587118   1.0189418e-06
     0.14504505   9.2261174e-17   2.1594646e-19               0    0.0044769667       969.71509    0.0076127463   1.0131406e-06
     0.14714715   9.2261174e-17   2.1594646e-19               0    0.0044189499        969.2825     0.007605965   1.0074667e-06
     0.14924925   9.0976481e-17   1.9996365e-19               0    0.0043610011       968.76916    0.0075979217   1.0018007e-06
     0.15135135   9.0976481e-17   1.9996365e-19               0    0.0043043591       966.70197    0.0075655946   9.9628662e-07
     0.15345345   9.0976481e-17   1.9996365e-19               0     0.004247717       964.63478    0.0075332674   9.9077254e-07
     0.15555556   8.9694592e-17   1.8486411e-19               0    0.0041928323       961.71964    0.0074879115   9.8540173e-07
     0.15765766   8.9694592e-17   1.8486411e-19               0    0.0041382801       958.64408    0.0074400906   9.8005801e-07
     0.15975976    8.842019e-17   1.7039616e-19               0    0.0040852614       955.23889    0.0073873992   9.7482218e-07
     0.16186186    8.842019e-17   1.7039616e-19               0    0.0040334255       951.57947    0.0073309512   9.6966956e-07
     0.16396396   8.7161386e-17   1.5577781e-19               0    0.0039826145       947.85847    0.0072736776   9.6456795e-07
     0.16606607   8.7161386e-17   1.5577781e-19               0    0.0039354744       943.91696    0.0072134474    9.596491e-07
     0.16816817   8.7161386e-17   1.5577781e-19               0    0.0038883344       939.97545    0.0071532172   9.5473024e-07
     0.17027027   8.5934868e-17   1.4128584e-19               0    0.0038454706       936.01694    0.0070932171   9.4999657e-07
     0.17237237   8.5934868e-17   1.4128584e-19               0    0.0038036766       932.05417    0.0070332745   9.4530922e-07
     0.17447447    8.472738e-17   1.2832937e-19               0    0.0037624288       928.12796    0.0069740734   9.4069384e-07
     0.17657658    8.472738e-17   1.2832937e-19               0    0.0037224127       924.28417    0.0069165443   9.3624073e-07
     0.17867868    8.472738e-17   1.2832937e-19               0    0.0036823967       920.44039    0.0068590152   9.3178761e-07
     0.18078078   8.3558284e-17   1.1605993e-19               0    0.0036422592       916.70906    0.0068036011   9.2753641e-07
     0.18288288   8.3558284e-17   1.1605993e-19               0    0.0036020785       913.01767    0.0067489381    9.233569e-07
     0.18498498   8.2434792e-17    1.042824e-19               0    0.0035621196       909.34225    0.0066945611   9.1920307e-07
     0.18708709   8.2434792e-17    1.042824e-19               0    0.0035244078       905.82881    0.0066430834   9.1530952e-07
     0.18918919   8.2434792e-17    1.042824e-19               0     0.003486696       902.31537    0.0065916058   9.1141598e-07
     0.19129129   8.1363019e-17   9.3018353e-20               0    0.0034506998       898.87575    0.0065413914   9.0762877e-07
     0.19339339   8.1363019e-17   9.3018353e-20               0    0.0034177503       895.56724    0.0064934203   9.0403039e-07
      0.1954955   8.1363019e-17   9.3018353e-20               0    0.0033848007       892.25873    0.0064454493   9.0043201e-07
      0.1975976   8.0349191e-17   8.2328615e-20               0    0.0033545227       889.08554    0.0063996857   8.9699866e-07
      0.1996997   8.0349191e-17   8.2328615e-20               0    0.0033264585       886.02448    0.0063557513   8.9370206e-07
      0.2018018   8.0349191e-17   8.2328615e-20               0    0.0032983943       882.96342     0.006311817   8.9040546e-07
      0.2039039   7.9398662e-17    7.231082e-20               0    0.0032734858       880.08207    0.0062707116   8.8730611e-07
     0.20600601   7.9398662e-17    7.231082e-20               0    0.0032502989       877.29874    0.0062311496   8.8431437e-07
     0.20810811   7.9398662e-17    7.231082e-20               0     0.003227112       874.51542    0.0061915876   8.8132263e-07
     0.21021021   7.8516184e-17   6.2885674e-20               0    0.0032066838       871.92481    0.0061549765   8.7853199e-07
     0.21231231   7.8516184e-17   6.2885674e-20               0    0.0031876888       869.43431    0.0061198984   8.7584582e-07
     0.21441441   7.8516184e-17   6.2885674e-20               0    0.0031686937       866.94382    0.0060848202   8.7315964e-07
     0.21651652   7.7706176e-17   5.4070598e-20               0      0.00315085       864.62375    0.0060522926    8.706468e-07
     0.21861862   7.7706176e-17   5.4070598e-20               0    0.0031338492       862.42844     0.006021632   8.6826085e-07
     0.22072072   7.7706176e-17   5.4070598e-20               0    0.0031168483       860.23314    0.0059909714    8.658749e-07
     0.22282282   7.6969955e-17   4.6049876e-20               0    0.0031004105       858.15272    0.0059619975   8.6360374e-07
     0.22492492   7.6969955e-17   4.6049876e-20               0    0.0030848104       856.24324    0.0059355333   8.6150336e-07
     0.22702703   7.6969955e-17   4.6049876e-20               0    0.0030692103       854.33377    0.0059090691   8.5940298e-07
     0.22912913   7.6305933e-17   3.8803376e-20               0    0.0030539345       852.45874    0.0058831026   8.5733681e-07
     0.23123123   7.6305933e-17   3.8803376e-20               0    0.0030408489        850.8163    0.0058604963   8.5550161e-07
     0.23333333   7.6305933e-17   3.8803376e-20               0    0.0030277633       849.17387      0.00583789    8.536664e-07
     0.23543544   7.6305933e-17   3.8803376e-20               0    0.0030146776       847.53143    0.0058152837    8.518312e-07
     0.23753754   7.5711144e-17   3.2324238e-20               0    0.0030035777       846.07192    0.0057952847   8.5017906e-07
     0.23963964   7.5711144e-17   3.2324238e-20               0    0.0029931205       844.67162    0.0057761295   8.4858617e-07
     0.24174174   7.5711144e-17   3.2324238e-20               0    0.0029826633       843.27133    0.0057569742   8.4699328e-07
     0.24384384   7.5181572e-17   2.6717168e-20               0    0.0029727713       841.93056    0.0057386578   8.4546097e-07
     0.24594595   7.5181572e-17   2.6717168e-20               0    0.0029643449       840.74413    0.0057225162    8.440857e-07
     0.24804805   7.5181572e-17   2.6717168e-20               0    0.0029559186       839.55771    0.0057063746   8.4271044e-07
     0.25015015   7.5181572e-17   2.6717168e-20               0    0.0029474922       838.37129     0.005690233   8.4133518e-07
     0.25225225   7.4712019e-17   2.1966989e-20               0    0.0029403363        837.3132    0.0056758824   8.4009346e-07
     0.25435435   7.4712019e-17   2.1966989e-20               0    0.0029337397       836.31159    0.0056623201   8.3891054e-07
     0.25645646   7.4712019e-17   2.1966989e-20               0    0.0029271431       835.30999    0.0056487578   8.3772761e-07
     0.25855856    7.429692e-17   1.7943229e-20               0     0.002920547       834.30843    0.0056351961   8.3654474e-07
     0.26066066    7.429692e-17   1.7943229e-20               0    0.0029156195       833.46504    0.0056238235   8.3553153e-07
     0.26276276    7.429692e-17   1.7943229e-20               0     0.002910692       832.62164     0.005612451   8.3451831e-07
     0.26486486    7.429692e-17   1.7943229e-20               0    0.0029057646       831.77825    0.0056010784    8.335051e-07
     0.26696697   7.3931903e-17   1.4524333e-20               0    0.0029009155       830.96103    0.0055900653    8.325207e-07
     0.26906907   7.3931903e-17   1.4524333e-20               0    0.0028963947       830.25343    0.0055805584     8.31657e-07
     0.27117117   7.3931903e-17   1.4524333e-20               0     0.002891874       829.54584    0.0055710515    8.307933e-07
     0.27327327   7.3931903e-17   1.4524333e-20               0    0.0028873532       828.83825    0.0055615446    8.299296e-07
     0.27537538   7.3612183e-17   1.1701473e-20               0     0.002882642       828.16141    0.0055524576   8.2910028e-07
     0.27747748   7.3612183e-17   1.1701473e-20               0    0.0028774108       827.56852    0.0055445167   8.2836482e-07
     0.27957958   7.3612183e-17   1.1701473e-20               0    0.0028721796       826.97562    0.0055365758   8.2762936e-07
     0.28168168   7.3612183e-17   1.1701473e-20               0    0.0028669484       826.38273    0.0055286349    8.268939e-07
     0.28378378   7.3331459e-17   9.3815442e-21               0    0.0028616609       825.81041    0.0055209738   8.2618205e-07
     0.28588589   7.3331459e-17   9.3815442e-21               0     0.002856177       825.30979    0.0055142872   8.2555247e-07
     0.28798799   7.3331459e-17   9.3815442e-21               0    0.0028506931       824.80917    0.0055076006   8.2492289e-07
     0.29009009   7.3331459e-17   9.3815442e-21               0    0.0028452093       824.30856     0.005500914   8.2429331e-07
     0.29219219   7.3082812e-17   7.5662678e-21               0    0.0028397476       823.81167    0.0054942781   8.2366826e-07
     0.29429429   7.3082812e-17   7.5662678e-21               0    0.0028346782       823.38069    0.0054885354   8.2312312e-07
      0.2963964   7.3082812e-17   7.5662678e-21               0    0.0028296087        822.9497    0.0054827928   8.2257797e-07
      0.2984985   7.3082812e-17   7.5662678e-21               0    0.0028245393       822.51872    0.0054770502   8.2203283e-07
      0.3006006   7.3082812e-17   7.5662678e-21               0    0.0028194699       822.08773    0.0054713076   8.2148768e-07
      0.3027027   7.2859333e-17   6.2898048e-21               0    0.0028148026       821.69428    0.0054660734   8.2099186e-07
      0.3048048   7.2859333e-17   6.2898048e-21               0     0.002810265       821.31293    0.0054610033   8.2051194e-07
     0.30690691   7.2859333e-17   6.2898048e-21               0    0.0028057274       820.93159    0.0054559332   8.2003203e-07
     0.30900901   7.2859333e-17   6.2898048e-21               0    0.0028011898       820.55024    0.0054508631   8.1955211e-07
     0.31111111   7.2654681e-17   5.4562536e-21               0     0.002796878        820.1802    0.0054459461   8.1908874e-07
     0.31321321   7.2654681e-17   5.4562536e-21               0    0.0027930315       819.83344    0.0054413451   8.1865946e-07
     0.31531532   7.2654681e-17   5.4562536e-21               0     0.002789185       819.48668    0.0054367441   8.1823018e-07
     0.31741742   7.2654681e-17   5.4562536e-21               0    0.0027853385       819.13992     0.005432143    8.178009e-07
     0.31951952   7.2654681e-17   5.4562536e-21               0    0.0027814921       818.79316     0.005427542   8.1737162e-07
     0.32162162    7.246484e-17   4.8465163e-21               0    0.0027776598       818.46476    0.0054231907   8.1697331e-07
     0.32372372    7.246484e-17   4.8465163e-21               0     0.002773832       818.14213    0.0054189179   8.1658474e-07
