#      distance             U_x             U_y             U_z wallShearStr... wallShearStr... wallShearStr...               p           omega               k             nut
    0.001215373      0.62966182   9.9015872e-05               0               0               0               0   0.00016044014       356.91797    0.0041861375   1.5160209e-05
   0.0020572852      0.68699762   0.00011972908               0               0               0               0   0.00016453913       180.47864    0.0041284364   2.5066786e-05
   0.0029273097      0.72303719   0.00014430462               0               0               0               0   0.00016977314       119.73042    0.0039713782   3.4680904e-05
   0.0038263852      0.75019348   0.00017335284               0               0               0               0   0.00017570783       89.971046    0.0038430801   4.3783301e-05
   0.0047554818      0.77243448   0.00020669685               0               0               0               0   0.00018204556       72.469018     0.003724898   5.2171697e-05
   0.0057156019      0.79159567   0.00024420559               0               0               0               0   0.00018857087       61.054223     0.003607699   5.9648208e-05
   0.0067077814      0.80869446   0.00028584375               0               0               0               0   0.00019510761       53.114293    0.0034871714   6.6051016e-05
   0.0077330908      0.82435915   0.00033165412               0               0               0               0   0.00020149383       47.357512    0.0033608542   7.1239842e-05
   0.0087926364      0.83901841   0.00038184903               0               0               0               0   0.00020757338       43.071917    0.0032268829   7.5006959e-05
   0.0098875613      0.85301646   0.00043688156               0               0               0               0   0.00021318418       39.820993    0.0030828289   7.6909351e-05
    0.011019047      0.86666073   0.00049746201               0               0               0               0   0.00021813088        37.30369    0.0029251193   7.6701644e-05
    0.012188314      0.88020079   0.00056467443               0               0               0               0   0.00022220483        35.29325    0.0027491757   7.4567975e-05
    0.013396624      0.89381913   0.00063998786               0               0               0               0   0.00022525484       33.605171    0.0025496763   7.0736308e-05
    0.014645281      0.90764227   0.00072493912               0               0               0               0   0.00022722493       32.078931    0.0023212846   6.5466662e-05
    0.015935632      0.92171501   0.00082051103               0               0               0               0    0.0002281389       30.575292    0.0020603129   5.9219182e-05
    0.017269069      0.93591914   0.00092622773               0               0               0               0   0.00022806081       28.987953    0.0017679267   5.2722083e-05
    0.018647031      0.94987774    0.0010390449               0               0               0               0    0.0002270678       27.283855    0.0014550534   4.6777333e-05
    0.020071004      0.96303047    0.0011539358               0               0               0               0   0.00022529801       25.488239      0.00114018   4.1375869e-05
    0.021542526      0.97504583    0.0012670002               0               0               0               0   0.00022298352       23.533231   0.00083496047   3.4512324e-05
    0.023063183      0.98588185    0.0013757102               0               0               0               0   0.00022032846       21.087302   0.00054508162   2.5313091e-05
    0.024634616       0.9949459    0.0014702402               0               0               0               0   0.00021741036       17.525129   0.00029268408    1.582774e-05
    0.026258521       1.0008404    0.0015307063               0               0               0               0    0.0002143228       12.690944   0.00011664193   8.1280549e-06
     0.02793665       1.0032415    0.0015524899               0               0               0               0   0.00021130508       8.3026688   3.1262629e-05    3.149412e-06
    0.029670814       1.0037267      0.00155416               0               0               0               0   0.00020849081       6.2088588   5.6814522e-06   8.3625156e-07
    0.031462883       1.0037612    0.0015509197               0               0               0               0   0.00020577469       5.7843799   1.2889586e-06   2.2143967e-07
    0.033314791       1.0037589    0.0015468035               0               0               0               0   0.00020301548       5.7421469   8.3850827e-07   1.4601642e-07
    0.035228536       1.0037573    0.0015413243               0               0               0               0   0.00020010696       5.7389579   8.0336248e-07   1.3997958e-07
    0.037206184       1.0037564    0.0015388337               0               0               0               0   0.00019705546       5.7387352   8.0085198e-07   1.3954727e-07
    0.039249867       1.0037545    0.0015414091               0               0               0               0   0.00019400288       5.7387168   8.0068122e-07   1.3951794e-07
     0.04136179       1.0037515    0.0015429591               0               0               0               0   0.00019101025        5.738711   8.0066933e-07     1.39516e-07
    0.043544233       1.0037486    0.0015418884               0               0               0               0   0.00018802334       5.7387053    8.006676e-07   1.3951584e-07
     0.04579955       1.0037456    0.0015398299               0               0               0               0   0.00018498935       5.7386987   8.0066639e-07   1.3951579e-07
    0.048130175       1.0037434     0.001537609               0               0               0               0   0.00018187396       5.7386912    8.006651e-07   1.3951575e-07
    0.050538621       1.0037469    0.0015374072               0               0               0               0   0.00017868373       5.7386836   8.0066394e-07   1.3951573e-07
    0.053027488        1.003759    0.0015439907               0               0               0               0   0.00017552063       5.7386751   8.0066268e-07   1.3951572e-07
    0.055599461       1.0037717    0.0015562905               0               0               0               0   0.00017257277       5.7386635   8.0066072e-07   1.3951566e-07
    0.058257315       1.0037796    0.0015661801               0               0               0               0   0.00016992374       5.7386499   8.0065834e-07   1.3951557e-07
    0.061003917       1.0037849    0.0015721696               0               0               0               0    0.0001675071       5.7386356   8.0065597e-07   1.3951551e-07
    0.063842231       1.0037893    0.0015764518               0               0               0               0   0.00016527002         5.73862   8.0065344e-07   1.3951544e-07
     0.06677532       1.0037928    0.0015786356               0               0               0               0   0.00016319031       5.7386029    8.006507e-07   1.3951538e-07
    0.069806347       1.0037961    0.0015782463               0               0               0               0   0.00016126334       5.7385842   8.0064774e-07   1.3951533e-07
    0.072938584       1.0037991    0.0015751863               0               0               0               0   0.00015949157       5.7385634   8.0064447e-07   1.3951526e-07
    0.076175409       1.0037992     0.001569979               0               0               0               0   0.00015783091       5.7385408   8.0064093e-07   1.3951519e-07
    0.079520315       1.0037958      0.00156241               0               0               0               0   0.00015621386       5.7385161   8.0063708e-07   1.3951512e-07
    0.082976911       1.0037908    0.0015544237               0               0               0               0    0.0001546091       5.7384892   8.0063288e-07   1.3951504e-07
    0.086548926       1.0037853    0.0015470021               0               0               0               0   0.00015302245         5.73846   8.0062834e-07   1.3951496e-07
    0.090240215       1.0037791    0.0015399313               0               0               0               0    0.0001514571       5.7384287   8.0062344e-07   1.3951487e-07
     0.09405476       1.0037735    0.0015330368               0               0               0               0    0.0001499062       5.7384019   8.0061912e-07   1.3951477e-07
