#      distance             U_x             U_y             U_z wallShearStr... wallShearStr... wallShearStr...               p           omega               k             nut
              0      0.99939406               0               0               0               0               0     0.004662488       57.711201   7.9194805e-06   1.3721776e-07
   0.0021021021      0.99937626               0               0               0               0               0    0.0046806786       57.630247   7.8900587e-06   1.3689961e-07
   0.0042042042      0.99935847               0               0               0               0               0    0.0046988693       57.549293   7.8606369e-06   1.3658147e-07
   0.0063063063      0.99934068               0               0               0               0               0    0.0047170599       57.468339   7.8312151e-06   1.3626332e-07
   0.0084084084      0.99932289               0               0               0               0               0    0.0047352506       57.387385   7.8017934e-06   1.3594518e-07
    0.010510511      0.99930272               0               0               0               0               0    0.0047558681       57.314035   7.7742948e-06   1.3563957e-07
    0.012612613      0.99928106               0               0               0               0               0     0.004777993       57.245407   7.7479908e-06   1.3534174e-07
    0.014714715       0.9992594               0               0               0               0               0    0.0048001179       57.176779   7.7216867e-06   1.3504391e-07
    0.016816817      0.99923775               0               0               0               0               0    0.0048222427       57.108152   7.6953827e-06   1.3474608e-07
    0.018918919      0.99921609               0               0               0               0               0    0.0048443676       57.039524   7.6690786e-06   1.3444825e-07
    0.021021021      0.99919383               0               0               0               0               0    0.0048671095       56.972087   7.6430879e-06   1.3415267e-07
    0.023123123      0.99916747               0               0               0               0               0    0.0048939991        56.91265   7.6192041e-06   1.3387221e-07
    0.025225225       0.9991411               0               0               0               0               0    0.0049208888       56.853214   7.5953203e-06   1.3359175e-07
    0.027327327      0.99911474               0               0               0               0               0    0.0049477785       56.793777   7.5714365e-06   1.3331128e-07
    0.029429429      0.99908838               0               0               0               0               0    0.0049746681       56.734341   7.5475527e-06   1.3303082e-07
    0.031531532      0.99906054               0               0               0               0               0    0.0050030455       56.676725   7.5241629e-06   1.3275415e-07
    0.033633634      0.99902839               0               0               0               0               0    0.0050357679       56.624428    7.502216e-06   1.3248859e-07
    0.035735736      0.99899624               0               0               0               0               0    0.0050684904       56.572131   7.4802692e-06   1.3222302e-07
    0.037837838      0.99896409               0               0               0               0               0    0.0051012128       56.519834   7.4583223e-06   1.3195746e-07
     0.03993994      0.99893194               0               0               0               0               0    0.0051339352       56.467537   7.4363755e-06   1.3169189e-07
    0.042042042      0.99889318               0               0               0               0               0    0.0051732738        56.42048   7.4158774e-06   1.3143802e-07
    0.044144144       0.9988538               0               0               0               0               0    0.0052132325       56.373914   7.3955151e-06   1.3118525e-07
    0.046246246      0.99881442               0               0               0               0               0    0.0052531911       56.327348   7.3751527e-06   1.3093248e-07
    0.048348348       0.9987747               0               0               0               0               0     0.005293485       56.280956   7.3548388e-06   1.3068011e-07
     0.05045045      0.99872616               0               0               0               0               0    0.0053425781       56.239128   7.3357969e-06   1.3043834e-07
    0.052552553      0.99867762               0               0               0               0               0    0.0053916713         56.1973    7.316755e-06   1.3019657e-07
    0.054654655      0.99862909               0               0               0               0               0    0.0054407645       56.155472   7.2977131e-06    1.299548e-07
    0.056756757      0.99857386               0               0               0               0               0    0.0054964437       56.115872   7.2792949e-06   1.2971835e-07
    0.058858859      0.99851336               0               0               0               0               0    0.0055573151       56.078028   7.2613685e-06    1.294861e-07
    0.060960961      0.99845287               0               0               0               0               0    0.0056181866       56.040185    7.243442e-06   1.2925385e-07
    0.063063063      0.99838567               0               0               0               0               0     0.005685725       56.003855   7.2259283e-06    1.290251e-07
    0.065165165      0.99830943               0               0               0               0               0    0.0057622769       55.969571   7.2089725e-06   1.2880109e-07
    0.067267267      0.99823318               0               0               0               0               0    0.0058388289       55.935287   7.1920168e-06   1.2857707e-07
    0.069369369      0.99814349               0               0               0               0               0    0.0059279723       55.902545   7.1755267e-06   1.2835742e-07
    0.071471471      0.99804422               0               0               0               0               0    0.0060260931       55.870902   7.1593685e-06   1.2814088e-07
    0.073573574      0.99794494               0               0               0               0               0    0.0061242139       55.839259   7.1432103e-06   1.2792434e-07
    0.075675676      0.99781575               0               0               0               0               0    0.0062540149       55.812174   7.1279749e-06   1.2771333e-07
    0.077777778      0.99768622               0               0               0               0               0    0.0063841757       55.785141   7.1127499e-06   1.2750238e-07
     0.07987988      0.99751883               0               0               0               0               0     0.006543428       55.754962   7.0974643e-06    1.272972e-07
    0.081981982      0.99732598               0               0               0               0               0    0.0067222392       55.722666   7.0821379e-06   1.2709591e-07
    0.084084084      0.99710938               0               0               0               0               0    0.0069366491       55.702231   7.0681122e-06    1.268909e-07
    0.086186186      0.99685277               0               0               0               0               0    0.0072110249       55.701775   7.0562777e-06   1.2667965e-07
    0.088288288      0.99645784               0  -3.2721027e-22               0               0               0    0.0075253005       55.670416   7.0406809e-06   1.2647063e-07
     0.09039039      0.99570041               0  -1.5118927e-21               0               0               0    0.0079441354       55.558077   7.0152252e-06   1.2626748e-07
    0.092492492      0.99497261               0   8.4513704e-18               0               0               0    0.0085563673       60.068111    7.131591e-06   1.2242666e-07
    0.094594595      0.99432291               0   3.9196438e-17               0               0               0    0.0096785598       76.766691     7.62192e-06   1.0899385e-07
    0.096696697      0.90629554               0   5.9603609e-17  -0.00046042924   -3.079377e-06               0     0.010451518       1403665.7    7.334657e-06   8.8977742e-08
    0.098798799      0.64579377               0   5.9604847e-17   -0.0018296978  -1.2237123e-05               0     0.010535126         5577760    5.512508e-06   5.5966898e-08
      0.1009009      0.38534481               0   4.6220659e-17   -0.0028992642  -1.7533804e-05    8.015139e-20    0.0096885966       9751074.2   3.4691948e-06   2.8771662e-08
       0.103003      0.12496628               0   1.4989235e-17   -0.0035692278  -1.7682399e-05    2.671713e-19    0.0076018846        13923348   1.1309958e-06   9.3305725e-09
     0.10510511               0               0               0   -0.0035216177  -1.3032328e-05   4.5781766e-19    0.0059411341        15925793   1.2827156e-08               0
     0.10720721               0               0               0   -0.0028117889  -3.9537697e-06   6.5181074e-19    0.0046734855        15925793   2.0573366e-08               0
     0.10930931               0               0               0    -0.002515775  -2.0077577e-07   5.7728582e-19    0.0042356797        15925793   2.6510477e-08               0
     0.11141141               0               0               0   -0.0025001272  -5.5936458e-08    3.208357e-19    0.0043601055        15925793   3.1221895e-08               0
     0.11351351               0               0               0   -0.0024869862  -7.1106214e-09   1.0749323e-19    0.0044860973        15925793   3.3329427e-08               0
     0.11561562               0               0               0   -0.0024751587  -8.6007443e-09  -8.3258633e-20    0.0046129097        15925793   3.4072389e-08               0
     0.11771772               0               0               0   -0.0024513963  -1.0590568e-08  -9.0759557e-20    0.0046239605        15925793   3.3783431e-08               0
     0.11981982               0               0               0   -0.0024225072  -1.2795045e-08  -1.9542898e-20    0.0045852845        15925793   3.3051198e-08               0
     0.12192192               0               0               0   -0.0023919725  -1.3316746e-08               0    0.0045063435        15925793   3.2169074e-08               0
     0.12402402               0               0               0   -0.0023608154  -1.3202025e-08               0    0.0044121744        15925793    3.123026e-08               0
     0.12612613               0               0               0   -0.0023321328  -1.2570918e-08               0     0.004337492        15925793    3.038104e-08               0
     0.12822823               0               0               0   -0.0023043482  -1.1752382e-08               0    0.0042698825        15925793   2.9564339e-08               0
     0.13033033               0               0               0   -0.0022794554  -1.0949134e-08               0    0.0042217794        15925793   2.8838869e-08               0
     0.13243243               0               0               0   -0.0022556695  -1.0151738e-08               0    0.0041811434        15925793   2.8148322e-08               0
     0.13453453               0               0               0   -0.0022341223  -9.4720553e-09   -1.452016e-19    0.0041440755        15925793   2.7524453e-08               0
     0.13663664               0               0               0   -0.0022135654  -8.8444461e-09  -3.5463769e-19     0.004108586        15925793   2.6930082e-08               0
     0.13873874               0               0               0   -0.0021946331  -8.3042856e-09  -4.2933006e-19    0.0040732145        15925793   2.6386072e-08               0
     0.14084084               0               0               0   -0.0021766013  -7.8126005e-09   -4.293301e-19    0.0040379084        15925793   2.5869978e-08               0
     0.14294294               0               0               0   -0.0021597339  -7.3830463e-09  -4.0594021e-19    0.0040040092        15925793   2.5390808e-08               0
     0.14504505               0               0               0   -0.0021437354  -6.9998639e-09  -3.6509312e-19    0.0039711602        15925793   2.4939195e-08               0
     0.14714715               0               0               0   -0.0021284837   -6.660378e-09  -2.7230804e-19    0.0039396732        15925793   2.4510384e-08               0
     0.14924925               0               0               0   -0.0021140399  -6.3681736e-09  -1.2332372e-19    0.0039096601        15925793   2.4106244e-08               0
     0.15135135               0               0               0   -0.0021000385  -6.0955407e-09  -1.9509192e-20    0.0038804394        15925793    2.371552e-08               0
     0.15345345               0               0               0   -0.0020868047  -5.8568695e-09   5.9241624e-21    0.0038525941        15925793   2.3348078e-08               0
     0.15555556               0               0               0   -0.0020738155  -5.6245191e-09  -7.6154175e-21    0.0038251711        15925793   2.2988482e-08               0
     0.15765766               0               0               0   -0.0020616557  -5.4136082e-09  -1.5334376e-19    0.0037991808        15925793   2.2655503e-08               0
     0.15975976               0               0               0   -0.0020495594  -5.2041416e-09  -2.7340846e-19    0.0037733111        15925793   2.2324571e-08               0
     0.16186186               0               0               0   -0.0020383669   -5.015199e-09  -2.8793335e-20    0.0037491567        15925793   2.2022734e-08               0
     0.16396396               0               0               0   -0.0020271745  -4.8262565e-09   2.1582179e-19    0.0037250023        15925793   2.1720897e-08               0
     0.16606607               0               0               0   -0.0020167575   -4.655391e-09   2.4545331e-19    0.0037024488        15925793   2.1443645e-08               0
     0.16816817               0               0               0   -0.0020064474  -4.4870172e-09   2.4545334e-19     0.003680116        15925793   2.1169781e-08               0
     0.17027027               0               0               0   -0.0019966603  -4.3329313e-09   1.4115353e-19    0.0036587814        15925793   2.0912145e-08               0
     0.17237237               0               0               0   -0.0019871354  -4.1860063e-09   -1.541985e-20    0.0036379472        15925793   2.0662641e-08               0
     0.17447447               0               0               0   -0.0019779038  -4.0471011e-09  -1.0519477e-19    0.0036176742        15925793   2.0422103e-08               0
     0.17657658               0               0               0   -0.0019690664  -3.9189742e-09  -1.0519478e-19    0.0035981555        15925793   2.0193614e-08               0
     0.17867868               0               0               0   -0.0019603267  -3.7933329e-09  -1.1058434e-19    0.0035788097        15925793   1.9968083e-08               0
     0.18078078               0               0               0    -0.001952102  -3.6808048e-09  -1.4440719e-19    0.0035603757        15925793    1.975816e-08               0
     0.18288288               0               0               0   -0.0019438774  -3.5682767e-09  -1.7823004e-19    0.0035419417        15925793   1.9548237e-08               0
     0.18498498               0               0               0   -0.0019361222  -3.4676413e-09  -1.1926492e-19    0.0035243915        15925793   1.9352382e-08               0
     0.18708709               0               0               0   -0.0019284413  -3.3688894e-09  -4.5604929e-20    0.0035069813        15925793   1.9158754e-08               0
     0.18918919               0               0               0   -0.0019210207  -3.2761753e-09   3.0164072e-20    0.0034900361        15925793   1.8972846e-08               0
     0.19129129               0               0               0   -0.0019138241  -3.1886589e-09   1.0774869e-19    0.0034734912        15925793   1.8793583e-08               0
     0.19339339               0               0               0   -0.0019067067  -3.1027504e-09    1.583783e-19    0.0034570958        15925793   1.8616657e-08               0
      0.1954955               0               0               0   -0.0018999492  -3.0241396e-09   8.6661006e-20    0.0034413788        15925793   1.8450334e-08               0
      0.1975976               0               0               0   -0.0018931917  -2.9455288e-09   1.4943707e-20    0.0034256618        15925793   1.8284012e-08               0
      0.1996997               0               0               0   -0.0018867521  -2.8728726e-09               0    0.0034106694        15925793   1.8126917e-08               0
      0.2018018               0               0               0   -0.0018803962  -2.8017837e-09               0    0.0033958678        15925793    1.797225e-08               0
      0.2039039               0               0               0   -0.0018741766  -2.7333427e-09  -2.0238558e-20    0.0033812435        15925793   1.7821495e-08               0
     0.20600601               0               0               0   -0.0018681897  -2.6694204e-09  -7.5016559e-20    0.0033669218        15925793   1.7677415e-08               0
     0.20810811               0               0               0   -0.0018622027  -2.6054981e-09  -1.2979456e-19    0.0033526002        15925793   1.7533335e-08               0
     0.21021021               0               0               0   -0.0018565208  -2.5472579e-09  -1.3457049e-19    0.0033388841        15925793   1.7397967e-08               0
     0.21231231               0               0               0    -0.001850868  -2.4895604e-09  -1.3457051e-19    0.0033252258        15925793    1.726343e-08               0
     0.21441441               0               0               0   -0.0018453454  -2.4339493e-09  -1.1220557e-19    0.0033119179        15925793    1.713255e-08               0
     0.21651652               0               0               0   -0.0018400024  -2.3812147e-09  -5.9005574e-20     0.003299093        15925793   1.7006711e-08               0
     0.21861862               0               0               0   -0.0018346593  -2.3284802e-09  -5.8055829e-21    0.0032862682        15925793   1.6880873e-08               0
     0.22072072               0               0               0    -0.001829572  -2.2805357e-09               0    0.0032736863        15925793   1.6762126e-08               0
     0.22282282               0               0               0   -0.0018245161  -2.2331781e-09               0    0.0032611341        15925793   1.6644248e-08               0
     0.22492492               0               0               0   -0.0018195432  -2.1873379e-09               0    0.0032487439        15925793   1.6528672e-08               0
     0.22702703               0               0               0   -0.0018147447  -2.1446804e-09               0    0.0032366936        15925793   1.6417925e-08               0
     0.22912913               0               0               0   -0.0018099461   -2.102023e-09               0    0.0032246433        15925793   1.6307178e-08               0
     0.23123123               0               0               0   -0.0018053197   -2.061657e-09  -2.7819856e-20    0.0032131069        15925793    1.620113e-08               0
     0.23333333               0               0               0   -0.0018007619  -2.0222049e-09  -6.6734151e-20    0.0032017754        15925793   1.6096956e-08               0
