#      distance             U_x             U_y             U_z wallShearStr... wallShearStr... wallShearStr...               p           omega               k             nut
              0      0.99955687               0               0               0               0               0    0.0046625864       175.99129   2.5474374e-05   1.4474797e-07
   0.0021021021      0.99954405               0               0               0               0               0    0.0046807823       176.00209   2.5468942e-05   1.4470823e-07
   0.0042042042      0.99953123               0               0               0               0               0    0.0046989783       176.01289   2.5463509e-05   1.4466848e-07
   0.0063063063      0.99951842               0               0               0               0               0    0.0047171742        176.0237   2.5458077e-05   1.4462873e-07
   0.0084084084       0.9995056               0               0               0               0               0    0.0047353702        176.0345   2.5452644e-05   1.4458898e-07
    0.010510511       0.9994909               0               0               0               0               0    0.0047559945        176.0456   2.5447873e-05   1.4455276e-07
    0.012612613      0.99947503               0               0               0               0               0    0.0047781269       176.05689   2.5443512e-05   1.4451873e-07
    0.014714715      0.99945915               0               0               0               0               0    0.0048002594       176.06819   2.5439152e-05   1.4448469e-07
    0.016816817      0.99944328               0               0               0               0               0    0.0048223918       176.07948   2.5434791e-05   1.4445066e-07
    0.018918919       0.9994274               0               0               0               0               0    0.0048445243       176.09077   2.5430431e-05   1.4441663e-07
    0.021021021      0.99941103               0               0               0               0               0    0.0048672741       176.10218   2.5426191e-05   1.4438318e-07
    0.023123123      0.99939132               0               0               0               0               0    0.0048941743       176.11442   2.5422763e-05   1.4435369e-07
    0.025225225      0.99937161               0               0               0               0               0    0.0049210745       176.12665   2.5419335e-05   1.4432421e-07
    0.027327327       0.9993519               0               0               0               0               0    0.0049479747       176.13888   2.5415907e-05   1.4429472e-07
    0.029429429      0.99933219               0               0               0               0               0    0.0049748749       176.15111   2.5412479e-05   1.4426524e-07
    0.031531532      0.99931124               0               0               0               0               0    0.0050032637       176.16367   2.5409269e-05   1.4423673e-07
    0.033633634      0.99928669               0               0               0               0               0    0.0050360004        176.1772   2.5406699e-05   1.4421107e-07
    0.035735736      0.99926213               0               0               0               0               0    0.0050687371       176.19072   2.5404128e-05   1.4418541e-07
    0.037837838      0.99923757               0               0               0               0               0    0.0051014738       176.20425   2.5401557e-05   1.4415975e-07
     0.03993994      0.99921302               0               0               0               0               0    0.0051342105       176.21777   2.5398986e-05   1.4413409e-07
    0.042042042       0.9991828               0               0               0               0               0    0.0051735677       176.23279   2.5397172e-05   1.4411151e-07
    0.044144144      0.99915204               0               0               0               0               0    0.0052135454       176.24796   2.5395428e-05   1.4408922e-07
    0.046246246      0.99912129               0               0               0               0               0    0.0052535231       176.26312   2.5393684e-05   1.4406693e-07
    0.048348348      0.99909024               0               0               0               0               0    0.0052938362       176.27835   2.5391971e-05   1.4404475e-07
     0.05045045      0.99905145               0               0               0               0               0    0.0053429546       176.29551   2.5391058e-05   1.4402556e-07
    0.052552553      0.99901266               0               0               0               0               0     0.005392073       176.31266   2.5390145e-05   1.4400638e-07
    0.054654655      0.99897387               0               0               0               0               0    0.0054411913       176.32981   2.5389232e-05   1.4398719e-07
    0.056756757      0.99892908               0               0               0               0               0    0.0054969002       176.34825   2.5388796e-05   1.4396966e-07
    0.058858859      0.99887956               0               0               0               0               0    0.0055578048        176.3677   2.5388735e-05   1.4395344e-07
    0.060960961      0.99883004               0               0               0               0               0    0.0056187094       176.38715   2.5388675e-05   1.4393722e-07
    0.063063063       0.9987744               0               0               0               0               0    0.0056862854       176.40783   2.5389013e-05   1.4392226e-07
    0.065165165      0.99871048               0               0               0               0               0    0.0057628808       176.43017   2.5389891e-05   1.4390902e-07
    0.067267267      0.99864656               0               0               0               0               0    0.0058394762       176.45251   2.5390769e-05   1.4389577e-07
    0.069369369      0.99857012               0               0               0               0               0     0.005928672       176.47601   2.5392129e-05   1.4388431e-07
    0.071471471      0.99848474               0               0               0               0               0    0.0060268516       176.50033   2.5393833e-05   1.4387414e-07
    0.073573574      0.99839936               0               0               0               0               0    0.0061250312       176.52466   2.5395538e-05   1.4386396e-07
    0.075675676      0.99828558               0               0               0               0               0    0.0062549085       176.55811   2.5399083e-05   1.4385679e-07
    0.077777778      0.99817147               0               0               0               0               0    0.0063851458       176.59167    2.540265e-05   1.4384965e-07
     0.07987988      0.99802107               0               0               0               0               0    0.0065445105       176.61222    2.540483e-05   1.4384525e-07
    0.081981982      0.99784627               0               0               0               0               0    0.0067234579       176.62405   2.5406079e-05   1.4384269e-07
    0.084084084      0.99764769               0               0               0               0               0    0.0069379979       176.68066   2.5414009e-05   1.4384149e-07
    0.086186186      0.99740904               0               0               0               0               0    0.0072124932       176.81271   2.5433197e-05   1.4384257e-07
    0.088288288      0.99703468               0  -3.1625071e-22               0               0               0    0.0075268147       176.81135   2.5432714e-05   1.4384093e-07
     0.09039039      0.99630467               0  -1.4612535e-21               0               0               0    0.0079455033       176.46034   2.5380686e-05   1.4383215e-07
    0.092492492      0.99561094               0   1.0546772e-17               0               0               0    0.0085580746       180.92827   2.5583446e-05    1.420259e-07
    0.094594595      0.99501286               0   4.8912231e-17               0               0               0    0.0096818869       198.10307   2.6458049e-05   1.3548001e-07
    0.096696697      0.90696131               0   7.4377351e-17  -0.00046142202  -3.0820933e-06               0     0.010456677       1403776.8    2.481834e-05   1.1846117e-07
    0.098798799      0.64628575               0   7.4378547e-17    -0.001833643  -1.2247917e-05               0     0.010542532       5577839.6   1.8215641e-05   8.0769815e-08
      0.1009009      0.38564931               0   5.7676789e-17   -0.0029061116  -1.7549345e-05   8.0246891e-20    0.0096979317         9751122   1.1201758e-05   4.5930911e-08
       0.103003      0.12506503               0   1.8704427e-17   -0.0035789103  -1.7698243e-05   2.6748964e-19    0.0076127245        13923364   3.6396298e-06   1.4895271e-08
     0.10510511               0               0               0   -0.0035318903  -1.3044285e-05   4.7276926e-19    0.0059521011        15925793   1.3976434e-08               0
     0.10720721               0               0               0   -0.0028205797  -3.9579715e-06   6.9469436e-19    0.0046833085        15925793   2.1130298e-08               0
     0.10930931               0               0               0   -0.0025226387  -2.0174569e-07   6.2700379e-19    0.0042423607        15925793   2.6774294e-08               0
     0.11141141               0               0               0   -0.0025047621  -5.6739255e-08   3.6309398e-19    0.0043622911        15925793   3.1395329e-08               0
     0.11351351               0               0               0   -0.0024900905  -7.7205409e-09   1.2916519e-19    0.0044849251        15925793   3.3441689e-08               0
     0.11561562               0               0               0   -0.0024770986  -9.0042918e-09  -8.9052017e-20     0.004608976        15925793   3.4138788e-08               0
     0.11771772               0               0               0   -0.0024527155   -1.085079e-08  -9.9828177e-20    0.0046193783        15925793   3.3826949e-08               0
     0.11981982               0               0               0   -0.0024234391  -1.2939023e-08  -2.1495609e-20    0.0045809617        15925793   3.3081709e-08               0
     0.12192192               0               0               0   -0.0023927094  -1.3401712e-08               0    0.0045029973        15925793   3.2193252e-08               0
     0.12402402               0               0               0   -0.0023614301  -1.3249625e-08               0     0.004410076        15925793    3.125063e-08               0
     0.12612613               0               0               0   -0.0023326779  -1.2601632e-08               0    0.0043361729        15925793    3.039898e-08               0
     0.12822823               0               0               0    -0.002304843  -1.1773643e-08               0    0.0042691726        15925793   2.9580348e-08               0
     0.13033033               0               0               0   -0.0022799103  -1.0966435e-08               0    0.0042212751        15925793   2.8853274e-08               0
     0.13243243               0               0               0   -0.0022560887  -1.0167183e-08               0    0.0041806902        15925793   2.8161247e-08               0
     0.13453453               0               0               0   -0.0022345078   -9.486407e-09  -1.4543489e-19     0.004143615        15925793   2.7536082e-08               0
     0.13663664               0               0               0   -0.0022139182  -8.8580421e-09  -3.5520746e-19    0.0041080924        15925793   2.6940495e-08               0
     0.13873874               0               0               0   -0.0021949559  -8.3169593e-09  -4.3001984e-19    0.0040727429        15925793   2.6395428e-08               0
     0.14084084               0               0               0   -0.0021768957  -7.8242595e-09  -4.3001988e-19    0.0040374894        15925793   2.5878367e-08               0
     0.14294294               0               0               0   -0.0021600029  -7.3936207e-09  -4.0655816e-19    0.0040036496        15925793   2.5398356e-08               0
     0.14504505               0               0               0   -0.0021439815  -7.0093014e-09  -3.6558561e-19    0.0039708649        15925793   2.4945998e-08               0
     0.14714715               0               0               0   -0.0021287093  -6.6687541e-09  -2.7266057e-19    0.0039394299        15925793   2.4516539e-08               0
     0.14924925               0               0               0   -0.0021142479  -6.3755701e-09  -1.2352059e-19    0.0039094554        15925793   2.4111857e-08               0
     0.15135135               0               0               0   -0.0021002304   -6.102074e-09  -1.9580474e-20     0.003880266        15925793   2.3720642e-08               0
     0.15345345               0               0               0   -0.0020869831  -5.8627414e-09   5.9263171e-21    0.0038524389        15925793   2.3352798e-08               0
     0.15555556               0               0               0    -0.002073981  -5.6297813e-09  -7.5912146e-21    0.0038250321        15925793   2.2992818e-08               0
     0.15765766               0               0               0     -0.00206181  -5.4184357e-09  -1.5347181e-19    0.0037990508        15925793    2.265951e-08               0
     0.15975976               0               0               0   -0.0020497027  -5.2085402e-09  -2.7366504e-19    0.0037731904        15925793   2.2328255e-08               0
     0.16186186               0               0               0    -0.002038501  -5.0192518e-09  -2.8841363e-20    0.0037490475        15925793   2.2026152e-08               0
     0.16396396               0               0               0   -0.0020272993  -4.8299635e-09   2.1598232e-19    0.0037249047        15925793   2.1724049e-08               0
     0.16606607               0               0               0   -0.0020168745  -4.6588107e-09   2.4563909e-19    0.0037023631        15925793   2.1446575e-08               0
     0.16816817               0               0               0   -0.0020065567  -4.4901576e-09   2.4563912e-19    0.0036800421        15925793   2.1172496e-08               0
     0.17027027               0               0               0   -0.0019967629  -4.3358285e-09   1.4126481e-19    0.0036587184        15925793   2.0914671e-08               0
     0.17237237               0               0               0   -0.0019872315  -4.1886784e-09  -1.5420431e-20    0.0036378944        15925793   2.0664992e-08               0
     0.17447447               0               0               0    -0.001977994  -4.0495653e-09  -1.0525948e-19    0.0036176311        15925793   2.0424292e-08               0
     0.17657658               0               0               0   -0.0019691514  -3.9212538e-09  -1.0525949e-19    0.0035981212        15925793   2.0195659e-08               0
     0.17867868               0               0               0   -0.0019604065  -3.7954322e-09  -1.1065075e-19    0.0035787841        15925793   1.9969989e-08               0
     0.18078078               0               0               0   -0.0019521773  -3.6827466e-09  -1.4448421e-19    0.0035603582        15925793   1.9759949e-08               0
     0.18288288               0               0               0   -0.0019439482   -3.570061e-09  -1.7831767e-19    0.0035419323        15925793   1.9549908e-08               0
     0.18498498               0               0               0   -0.0019361892  -3.4692902e-09  -1.1932653e-19    0.0035243895        15925793   1.9353955e-08               0
     0.18708709               0               0               0   -0.0019285047  -3.3704062e-09  -4.5634697e-20    0.0035069865        15925793   1.9160232e-08               0
     0.18918919               0               0               0   -0.0019210807  -3.2775796e-09   3.0169344e-20    0.0034900477        15925793   1.8974238e-08               0
     0.19129129               0               0               0    -0.001913881  -3.1899676e-09   1.0779176e-19    0.0034735086        15925793   1.8794898e-08               0
     0.19339339               0               0               0   -0.0019067607   -3.103968e-09   1.5844675e-19    0.0034571189        15925793   1.8617895e-08               0
      0.1954955               0               0               0   -0.0019000005   -3.025287e-09    8.669846e-20    0.0034414077        15925793   1.8451507e-08               0
      0.1975976               0               0               0   -0.0018932404  -2.9466059e-09   1.4950165e-20    0.0034256965        15925793   1.8285118e-08               0
      0.1996997               0               0               0   -0.0018867985  -2.8738876e-09               0      0.00341071        15925793   1.8127965e-08               0
      0.2018018               0               0               0   -0.0018804404  -2.8027388e-09               0    0.0033959142        15925793   1.7973242e-08               0
      0.2039039               0               0               0   -0.0018742187  -2.7342414e-09  -2.0244778e-20    0.0033812953        15925793   1.7822433e-08               0
     0.20600601               0               0               0   -0.0018682297  -2.6702688e-09  -7.5039615e-20    0.0033669785        15925793   1.7678305e-08               0
     0.20810811               0               0               0   -0.0018622408  -2.6062962e-09  -1.2983445e-19    0.0033526616        15925793   1.7534177e-08               0
     0.21021021               0               0               0   -0.0018565571  -2.5480144e-09  -1.3461185e-19    0.0033389497        15925793   1.7398767e-08               0
     0.21231231               0               0               0   -0.0018509026  -2.4902762e-09  -1.3461187e-19    0.0033252955        15925793   1.7264189e-08               0
     0.21441441               0               0               0   -0.0018453784  -2.4346278e-09  -1.1224005e-19    0.0033119912        15925793    1.713327e-08               0
     0.21651652               0               0               0   -0.0018400339  -2.3818607e-09  -5.9023709e-20    0.0032991692        15925793   1.7007395e-08               0
     0.21861862               0               0               0   -0.0018346894  -2.3290937e-09  -5.8073673e-21    0.0032863473        15925793   1.6881521e-08               0
     0.22072072               0               0               0   -0.0018296007   -2.281121e-09               0     0.003273768        15925793   1.6762742e-08               0
     0.22282282               0               0               0   -0.0018245435  -2.2337356e-09               0    0.0032612185        15925793   1.6644833e-08               0
     0.22492492               0               0               0   -0.0018195693  -2.1878683e-09               0    0.0032488313        15925793   1.6529228e-08               0
     0.22702703               0               0               0   -0.0018147696  -2.1451852e-09               0    0.0032367844        15925793   1.6418454e-08               0
     0.22912913               0               0               0   -0.0018099699  -2.1025021e-09               0    0.0032247375        15925793    1.630768e-08               0
     0.23123123               0               0               0   -0.0018053425  -2.0621128e-09  -2.7825737e-20    0.0032132043        15925793   1.6201608e-08               0
     0.23333333               0               0               0   -0.0018007837  -2.0226382e-09  -6.6748259e-20    0.0032018759        15925793    1.609741e-08               0
