#      distance             U_x             U_y             U_z wallShearStr... wallShearStr... wallShearStr...               p           omega               k             nut
    0.034013023      0.99914018   5.1402372e-06               0               0               0               0    0.0048569858       69.038245   1.1919955e-05   1.7265711e-07
    0.056204344      0.99878028   9.2182442e-06               0               0               0               0    0.0052188727       62.950677   1.0786188e-05   1.7134341e-07
    0.072112662      0.99829729   1.3759513e-05               0               0               0               0    0.0056576653       59.102406   1.0073269e-05    1.704375e-07
    0.083516877      0.99779652   3.4081895e-05               0               0               0               0    0.0062246714        56.57364   9.6065537e-06   1.6980617e-07
     0.09169223      0.99665766   6.9507139e-05               0               0               0               0    0.0069999217       54.867336   9.2924744e-06   1.6936258e-07
    0.097552904      0.99563298   0.00079900864               0  -1.3873244e-06  -1.4667425e-09               0    0.0083600548       53.720265   9.0780149e-06   1.6945919e-07
     0.10156632       0.9809946   0.00075669346               0  -4.1315434e-06  -5.6367342e-09               0    0.0087615714        99.64936   9.1323471e-06   8.2091232e-08
     0.10474707      0.96808226    0.0014021472               0   -5.426115e-06  -1.0259451e-08               0    0.0077151057       99.668428    9.518313e-06   4.4798928e-08
     0.10802554      0.95487163     0.001760961               0  -5.2982827e-06  -1.3452819e-08               0    0.0065902825       99.668428   1.0337592e-05   3.2892459e-08
     0.11140473      0.94078973    0.0020792872               0  -5.1662397e-06  -1.6035984e-08               0    0.0060665843        99.82091   1.3442523e-05   3.0182536e-08
     0.11488774      0.92684157    0.0024823734               0  -5.0353509e-06  -1.8482053e-08               0    0.0057294591       467.19027    0.0017675647   3.1759415e-06
     0.11847776      0.91338825    0.0027319612               0  -4.9096981e-06  -2.0049935e-08               0    0.0054698369       658.53718    0.0035110348      5.3245e-06
     0.12217807      0.90045306    0.0027608874               0  -4.7901426e-06  -2.0336988e-08               0    0.0052612064       782.35023    0.0049552075   6.3250837e-06
     0.12599207      0.88802358    0.0026957408               0  -4.6763364e-06  -1.9804777e-08               0    0.0050716159        862.9468    0.0060286947   6.9764182e-06
     0.12992323      0.87600715     0.002586813               0  -4.5674559e-06  -1.8885812e-08               0    0.0049090787       913.95609    0.0067624567   7.3886365e-06
     0.13397518      0.86430892    0.0024359413               0  -4.4623026e-06  -1.7721618e-08               0    0.0047744419       944.60319    0.0072235746   7.6362915e-06
     0.13815161      0.85272829    0.0022607124               0  -4.3595105e-06  -1.6443976e-08               0    0.0046582348       961.54364    0.0074849892   7.4785863e-06
     0.14245635      0.84117706    0.0020963206               0  -4.2581484e-06  -1.5203163e-08               0    0.0045400376       969.15948    0.0076040264   7.2088984e-06
     0.14689334      0.82962286    0.0019431714               0  -4.1578866e-06  -1.4052653e-08               0    0.0044163865       970.40589    0.0076235974    6.888117e-06
     0.15146665      0.81807044    0.0017993175               0  -4.0587263e-06  -1.2980148e-08               0    0.0042910292       967.30682     0.007574982   6.5481543e-06
     0.15618046      0.80654321    0.0016634086               0  -3.9608654e-06  -1.1970728e-08               0    0.0041662045       961.27587    0.0074808194   6.2094242e-06
     0.16103908      0.79508329    0.0015331638               0  -3.8646745e-06  -1.0999618e-08               0    0.0040430318       953.30521    0.0073572751   5.8848246e-06
     0.16604698      0.78376359    0.0014016595               0  -3.7708351e-06  -1.0043036e-08               0     0.003923612        944.1041     0.007215938   5.5827393e-06
     0.17120873      0.77273423    0.0012712161               0   -3.679834e-06  -9.1202409e-09               0     0.003815907       934.24152    0.0070659621   5.3126493e-06
     0.17652907      0.76187602    0.0011545727               0  -3.5917861e-06  -8.2622787e-09               0    0.0037162953        924.3486    0.0069171069   5.0692836e-06
     0.18201286      0.75136311    0.0010441175               0   -3.507213e-06  -7.4582307e-09               0     0.003611433       914.49039    0.0067703501   4.8578705e-06
     0.18766512      0.74126036   0.00093810211               0   -3.426752e-06  -6.6909669e-09               0    0.0035046933        904.7979    0.0066275943   4.6739774e-06
     0.19349103      0.73162273   0.00083671874               0  -3.3507608e-06  -5.9605333e-09               0    0.0034067714       895.31059     0.006489334   4.5149432e-06
     0.19949593       0.7225062   0.00074051685               0  -3.2795523e-06  -5.2701053e-09               0    0.0033204565       886.18203    0.0063576778   4.3800934e-06
     0.20568532       0.7139589    0.0006503719               0  -3.2133905e-06  -4.6219232e-09               0    0.0032450982       877.55797    0.0062345372   4.2689167e-06
     0.21206485      0.70602352   0.00056556937               0  -3.1524914e-06  -4.0153562e-09               0    0.0031828415       869.54422    0.0061211907    4.180588e-06
     0.21864039      0.69873984   0.00048626414               0  -3.0969938e-06  -3.4527647e-09               0    0.0031289452       862.21321    0.0060184114   4.1144816e-06
     0.22541793      0.69211965    0.0004141109               0   -3.046878e-06  -2.9398758e-09               0     0.003075657       855.60262    0.0059264786   4.0695145e-06
     0.23240371      0.68614867    0.0003489331               0  -3.0019576e-06  -2.4788817e-09               0    0.0030275209       849.71423    0.0058451853   4.0441995e-06
      0.2396041      0.68080023    0.0002906584               0  -2.9619461e-06  -2.0703955e-09               0    0.0029879823       844.52126    0.0057739583   4.0368332e-06
      0.2470257      0.67603822    0.0002402306               0  -2.9264926e-06  -1.7162254e-09               0    0.0029553528       839.97627    0.0057119774   4.0455382e-06
     0.25467531       0.6718159   0.00019751251               0  -2.8951976e-06  -1.4146851e-09               0    0.0029280957       836.01717    0.0056582586   4.0682707e-06
     0.26255994      0.66808324    0.0001613297               0  -2.8676636e-06  -1.1593258e-09               0    0.0029071065       832.57641    0.0056117788   4.1029327e-06
      0.2706868      0.66480094   0.00013058764               0  -2.8435315e-06  -9.4405125e-10               0    0.0028910557        829.5948    0.0055716563   4.1474741e-06
     0.27906334      0.66192594   0.00010520655               0   -2.822433e-06   -7.651998e-10               0    0.0028721194       827.02268    0.0055371597   4.2020926e-06
     0.28769723      0.65940164   8.4348333e-05               0  -2.8039423e-06  -6.1979816e-10               0    0.0028492631       824.79842    0.0055074143   4.2654408e-06
     0.29659637      0.65716577   6.8027567e-05               0  -2.7875966e-06  -5.0643342e-10               0    0.0028269607       822.84849    0.0054814035   4.3354816e-06
     0.30576892      0.65515626   5.6551306e-05               0  -2.7729393e-06  -4.2378053e-10               0     0.002806306       821.09452    0.0054580589   4.4098819e-06
     0.31522326      0.65331606   4.9057565e-05               0  -2.7595758e-06  -3.6584246e-10               0    0.0027874217       819.47063    0.0054364901    4.486332e-06
     0.32496807      0.65160905   4.3575767e-05               0  -2.7472168e-06  -3.2486118e-10               0    0.0027718824       817.92874    0.0054160497   4.5634436e-06
     0.33501226      0.65000843   4.0147203e-05               0  -2.7356321e-06  -2.9827086e-10               0    0.0027521325       816.43468      0.00539628   4.6402063e-06
     0.34536503      0.64847892    3.921157e-05               0  -2.7245773e-06  -2.8597332e-10               0    0.0027234053        814.9577    0.0053767719   4.7155067e-06
     0.35603587       0.6469841   3.9966389e-05               0  -2.7138067e-06  -2.8525101e-10               0    0.0026924816       813.46975    0.0053571547   4.7882356e-06
     0.36703454      0.64549641   4.1924249e-05               0  -2.7031203e-06  -2.9235814e-10               0    0.0026636592        811.9491    0.0053371434    4.857519e-06
     0.37837111      0.64399639   4.4561637e-05               0  -2.6923821e-06  -3.0388016e-10               0    0.0026368311       810.37939    0.0053165259   4.9226444e-06
     0.39005597      0.64247461   4.7304896e-05               0  -2.6815122e-06  -3.1738652e-10               0    0.0026103672       808.75236     0.005295198   4.9830485e-06
     0.40209982      0.64092427   5.0292203e-05               0  -2.6704523e-06  -3.3313381e-10               0    0.0025791449       807.06473    0.0052731208   5.0384069e-06
     0.41451368      0.63933522     5.40446e-05               0  -2.6591168e-06  -3.5264772e-10               0    0.0025425268       805.31311    0.0052502553   5.0882061e-06
     0.42730893      0.63768565   5.8422668e-05               0  -2.6473833e-06  -3.7518695e-10               0    0.0025054822       803.48666    0.0052264663   5.1340363e-06
     0.44049728      0.63595941   6.2691316e-05               0  -2.6351574e-06  -3.9750374e-10               0    0.0024704318       801.57481    0.0052016226    5.175518e-06
      0.4540908      0.63415581   6.6321518e-05               0  -2.6224234e-06  -4.1699549e-10               0    0.0024367552       799.57819    0.0051757407   5.2119168e-06
     0.46810195      0.63228178   6.9424004e-05               0  -2.6092142e-06  -4.3331429e-10               0    0.0023986513       797.50614    0.0051489495   5.2427955e-06
     0.48254356      0.63034087   7.2108293e-05               0  -2.5955628e-06  -4.4663136e-10               0    0.0023551951       795.36767    0.0051213723   5.2680613e-06
     0.49742885      0.62833598   7.4153431e-05               0  -2.5815102e-06  -4.5588434e-10               0    0.0023120999       793.17015    0.0050931112   5.2880346e-06
     0.51277145      0.62627935    7.515956e-05               0  -2.5671437e-06   -4.595826e-10               0    0.0022737002       790.92599     0.005064331   5.3034697e-06
     0.52858541      0.62419168   7.5125832e-05               0  -2.5525862e-06  -4.5786952e-10               0    0.0022365871       788.65455    0.0050352841   5.3151853e-06
     0.54488522      0.62208843   7.4525835e-05               0  -2.5379376e-06   -4.525539e-10               0    0.0021951577       786.37174    0.0050061761   5.3240152e-06
     0.56168579      0.61997431   7.3600799e-05               0   -2.523244e-06   -4.451564e-10               0    0.0021516043       784.08289    0.0049770759   5.3308985e-06
     0.57900252      0.61785046   7.2394184e-05               0  -2.5085301e-06  -4.3607115e-10               0    0.0021103722       781.78886     0.004947995   5.3363495e-06
     0.59685126      0.61572371    7.084378e-05               0  -2.4938353e-06  -4.2546557e-10               0    0.0020716769       779.49426    0.0049189924   5.3406479e-06
     0.61524836      0.61360195   6.9158103e-05               0     -2.4792e-06    -4.14156e-10               0     0.002030798       777.20645    0.0048901606   5.3438756e-06
     0.63421066      0.61148582   6.7550448e-05               0  -2.4646415e-06  -4.0271327e-10               0    0.0019866032       774.92884    0.0048615415   5.3459669e-06
     0.65375553      0.60937624   6.5776561e-05               0  -2.4501772e-06   -3.906024e-10               0    0.0019443434       772.66351    0.0048331601   5.3469959e-06
     0.67390086      0.60728122   6.3732109e-05               0  -2.4358489e-06  -3.7745157e-10               0    0.0019043459       770.41635    0.0048050889   5.3472184e-06
     0.69466511      0.60520841   6.1606147e-05               0  -2.4216949e-06   -3.639287e-10               0    0.0018627062       768.19351     0.004777402   5.3468303e-06
     0.71606728      0.60315741   5.9587637e-05               0  -2.4077265e-06  -3.5055382e-10               0    0.0018189475       765.99554    0.0047501035   5.3458807e-06
     0.73812698      0.60112863   5.7466211e-05               0  -2.3939513e-06  -3.3709461e-10               0    0.0017776196        763.8221    0.0047231869   5.3444792e-06
     0.76086441      0.59912669   5.5299705e-05               0  -2.3803804e-06  -3.2383538e-10               0    0.0017369608       761.67372    0.0046966556     5.34293e-06
     0.78430038      0.59714931   5.3383244e-05               0  -2.3670013e-06  -3.1156667e-10               0    0.0016930767       759.54737    0.0046704703   5.3412549e-06
     0.80845637      0.59518972   5.1636822e-05               0  -2.3537852e-06  -3.0021455e-10               0    0.0016489849       757.43769    0.0046445625   5.3393041e-06
     0.83335448      0.59324725   4.9880385e-05               0  -2.3407229e-06  -2.8921614e-10               0    0.0016066286       755.34409    0.0046189237    5.337027e-06
     0.85901753      0.59132514   4.8162411e-05               0  -2.3278195e-06  -2.7861107e-10               0    0.0015629891       753.26998    0.0045935935   5.3343906e-06
       0.885469      0.58942111   4.6605459e-05               0  -2.3150718e-06  -2.6844912e-10               0     0.001516861       751.21512    0.0045685672   5.3312928e-06
     0.91273313      0.58753513   4.4956676e-05               0  -2.3024858e-06  -2.5825646e-10               0    0.0014731557       749.17976    0.0045438458   5.3278147e-06
     0.94083488      0.58567366   4.3254414e-05               0  -2.2900789e-06  -2.4815263e-10               0    0.0014294522       747.16887    0.0045194873   5.3240784e-06
     0.96979998      0.58383482   4.1760981e-05               0  -2.2778467e-06  -2.3865884e-10               0    0.0013820215        745.1806    0.0044954672    5.320065e-06
     0.99965496      0.58201386   4.0291898e-05               0  -2.2657728e-06  -2.2960064e-10               0     0.001336323       743.20964    0.0044717192   5.3158255e-06
      1.0304272      0.58021292   3.8823589e-05               0  -2.2538517e-06  -2.2091525e-10               0     0.001291304       741.25639    0.0044482466   5.3114389e-06
      1.0621447      0.57842958   3.7548929e-05               0  -2.2420725e-06  -2.1282175e-10               0    0.0012425362       739.31978    0.0044250347   5.3067777e-06
      1.0948368      0.57666048   3.6276929e-05               0  -2.2304266e-06  -2.0498058e-10               0    0.0011948042       737.39802    0.0044020608   5.3017919e-06
      1.1285332         0.57491   3.4949457e-05               0  -2.2189229e-06  -1.9721092e-10               0    0.0011479126       735.49484    0.0043793677    5.296584e-06
      1.1632648      0.57317865   3.3744524e-05               0  -2.2075663e-06  -1.8974336e-10               0     0.001097825       733.61164    0.0043569703   5.2911192e-06
      1.1990635      0.57146443   3.2537711e-05               0   -2.196354e-06  -1.8249654e-10               0    0.0010488419       731.74633     0.004334842    5.285436e-06
       1.235962      0.56976968   3.1334952e-05               0   -2.185285e-06  -1.7551711e-10               0     0.001000152       729.89926    0.0043129854   5.2796416e-06
      1.2739941      0.56809153   3.0283832e-05               0   -2.174348e-06  -1.6901117e-10               0   0.00094813476       728.06795    0.0042913695   5.2736606e-06
      1.3131947      0.56642685   2.9241633e-05               0  -2.1635312e-06  -1.6278393e-10               0   0.00089706431       726.25016    0.0042699668   5.2674599e-06
      1.3535996      0.56477792   2.8203735e-05               0  -2.1528366e-06   -1.566936e-10               0   0.00084592456         724.448    0.0042488007   5.2610881e-06
      1.3952458      0.56314503    2.722168e-05               0  -2.1422688e-06  -1.5079477e-10               0   0.00079293597       722.66255    0.0042278827   5.2545326e-06
      1.4381715       0.5615285   2.6239785e-05               0  -2.1318272e-06  -1.4510864e-10               0    0.0007403458       720.89394    0.0042072125   5.2478275e-06
       1.482416       0.5599274   2.5331283e-05               0  -2.1215058e-06  -1.3969226e-10               0   0.00068647581       719.14054    0.0041867702   5.2409856e-06
      1.5280198      0.55833996   2.4449752e-05               0  -2.1112976e-06  -1.3451539e-10               0   0.00063277249       717.40043     0.004166532   5.2340091e-06
      1.5750246      0.55676674   2.3594122e-05               0   -2.101199e-06   -1.295507e-10               0   0.00057860824       715.67421    0.0041465039    5.226904e-06
      1.6234735       0.5552064    2.279533e-05               0  -2.0912071e-06  -1.2479848e-10               0   0.00052303546       713.96139     0.004126679   5.2196415e-06
      1.6734109      0.55365963   2.1994623e-05               0  -2.0813184e-06  -1.2022752e-10               0   0.00046878843       712.26277    0.0041070655   5.2122441e-06
      1.7248825      0.55212451   2.1255979e-05               0  -2.0715313e-06  -1.1591681e-10               0   0.00041379713       710.57606    0.0040876357   5.2047394e-06
      1.7779355      0.55060353   2.0565542e-05               0  -2.0618168e-06  -1.1189684e-10               0    0.0003615658       708.90306    0.0040684096   5.1970456e-06
      1.8326183      0.54907567   1.9930134e-05               0  -2.0522191e-06  -1.0825441e-10               0    0.0003069322       707.22498    0.0040491712     5.18932e-06
      1.8889812       0.5476085   1.9390813e-05               0  -2.0426187e-06  -1.4341687e-10               0   0.00027420919       705.60228    0.0040306014   5.1814581e-06
      1.9470756      0.54601252   4.9822295e-05               0   -2.033045e-06  -2.7225958e-10               0   0.00016324507       703.86376    0.0040107807    5.172917e-06
      2.0069548       0.5446183   9.3602298e-05               0  -2.0227997e-06  -4.1382971e-10               0   0.00035994588       702.32877    0.0039933083   5.1610617e-06
