#      distance             U_x             U_y             U_z wallShearStr... wallShearStr... wallShearStr...               p           omega               k             nut
              0      0.99961936               0               0               0               0               0     0.004663317        218.5734   3.3162495e-05   1.5172248e-07
   0.0021021021      0.99960828               0               0               0               0               0    0.0046815144       218.58446   3.3159417e-05   1.5170072e-07
   0.0042042042      0.99959721               0               0               0               0               0    0.0046997117       218.59553   3.3156339e-05   1.5167896e-07
   0.0063063063      0.99958613               0               0               0               0               0    0.0047179091        218.6066   3.3153261e-05    1.516572e-07
   0.0084084084      0.99957505               0               0               0               0               0    0.0047361064       218.61766   3.3150183e-05   1.5163544e-07
    0.010510511      0.99956229               0               0               0               0               0    0.0047567324       218.62918   3.3147663e-05   1.5161592e-07
    0.012612613      0.99954847               0               0               0               0               0    0.0047788668       218.64097   3.3145489e-05    1.515978e-07
    0.014714715      0.99953466               0               0               0               0               0    0.0048010012       218.65277   3.3143315e-05   1.5157968e-07
    0.016816817      0.99952084               0               0               0               0               0    0.0048231356       218.66456   3.3141141e-05   1.5156157e-07
    0.018918919      0.99950703               0               0               0               0               0      0.00484527       218.67636   3.3138968e-05   1.5154345e-07
    0.021021021      0.99949276               0               0               0               0               0    0.0048680218        218.6883   3.3136903e-05   1.5152572e-07
    0.023123123      0.99947549               0               0               0               0               0    0.0048949247       218.70127   3.3135568e-05   1.5151064e-07
    0.025225225      0.99945821               0               0               0               0               0    0.0049218275       218.71424   3.3134233e-05   1.5149555e-07
    0.027327327      0.99944093               0               0               0               0               0    0.0049487303       218.72721   3.3132898e-05   1.5148046e-07
    0.029429429      0.99942366               0               0               0               0               0    0.0049756332       218.74017   3.3131563e-05   1.5146538e-07
    0.031531532      0.99940525               0               0               0               0               0    0.0050040249       218.75354   3.3130439e-05   1.5145098e-07
    0.033633634      0.99938356               0               0               0               0               0    0.0050367652       218.76809   3.3129932e-05    1.514386e-07
    0.035735736      0.99936187               0               0               0               0               0    0.0050695055       218.78263   3.3129425e-05   1.5142622e-07
    0.037837838      0.99934018               0               0               0               0               0    0.0051022458       218.79718   3.3128918e-05   1.5141383e-07
     0.03993994      0.99931849               0               0               0               0               0    0.0051349861       218.81172   3.3128411e-05   1.5140145e-07
    0.042042042       0.9992916               0               0               0               0               0     0.005174348       218.82809   3.3128688e-05   1.5139139e-07
    0.044144144      0.99926421               0               0               0               0               0    0.0052143306       218.84463   3.3129038e-05   1.5138155e-07
    0.046246246      0.99923683               0               0               0               0               0    0.0052543131       218.86117   3.3129388e-05   1.5137171e-07
    0.048348348      0.99920917               0               0               0               0               0    0.0052946311       218.87781   3.3129772e-05   1.5136196e-07
     0.05045045      0.99917433               0               0               0               0               0     0.005343756       218.89679   3.3131041e-05   1.5135462e-07
    0.052552553       0.9991395               0               0               0               0               0    0.0053928808       218.91578   3.3132309e-05   1.5134729e-07
    0.054654655      0.99910467               0               0               0               0               0    0.0054420056       218.93477   3.3133578e-05   1.5133996e-07
    0.056756757      0.99906422               0               0               0               0               0    0.0054977221       218.95536   3.3135407e-05   1.5133407e-07
    0.058858859      0.99901936               0               0               0               0               0    0.0055586354       218.97723   3.3137677e-05   1.5132932e-07
    0.060960961       0.9989745               0               0               0               0               0    0.0056195487        218.9991   3.3139947e-05   1.5132458e-07
    0.063063063      0.99892386               0               0               0               0               0    0.0056871344        219.0225   3.3142708e-05   1.5132101e-07
    0.065165165      0.99886541               0               0               0               0               0    0.0057637412       219.04797   3.3146131e-05   1.5131905e-07
    0.067267267      0.99880696               0               0               0               0               0    0.0058403479       219.07344   3.3149554e-05   1.5131708e-07
    0.069369369      0.99873659               0               0               0               0               0    0.0059295574       219.10068   3.3153639e-05   1.5131691e-07
    0.071471471      0.99865771               0               0               0               0               0    0.0060277524       219.12919   3.3158195e-05   1.5131802e-07
    0.073573574      0.99857883               0               0               0               0               0    0.0061259473        219.1577   3.3162752e-05   1.5131913e-07
    0.075675676      0.99847264               0               0               0               0               0    0.0062558428       219.19677   3.3169623e-05    1.513235e-07
    0.077777778      0.99836615               0               0               0               0               0    0.0063860982       219.23596    3.317652e-05   1.5132791e-07
     0.07987988      0.99822454               0               0               0               0               0    0.0065454891       219.26099   3.3182023e-05   1.5133574e-07
    0.081981982      0.99805931               0               0               0               0               0    0.0067244683        219.2765    3.318659e-05   1.5134586e-07
    0.084084084      0.99787055               0               0               0               0               0    0.0069390217       219.34603   3.3199666e-05   1.5135748e-07
    0.086186186      0.99764215               0               0               0               0               0    0.0072134996       219.50656   3.3227074e-05   1.5137164e-07
    0.088288288      0.99728182               0  -3.1339515e-22               0               0               0    0.0075277594        219.5017   3.3229385e-05   1.5138555e-07
     0.09039039      0.99657576               0  -1.4480592e-21               0               0               0      0.00794627       219.06343   3.3165928e-05    1.513988e-07
    0.092492492      0.99591118               0   1.0969359e-17               0               0               0    0.0085589866       223.48009   3.3387903e-05   1.4984329e-07
    0.094594595      0.99535597               0   5.0871631e-17               0               0               0    0.0096837972       240.69849   3.4362526e-05    1.441512e-07
    0.096696697      0.90730407               0   7.7356793e-17  -0.00046187362  -3.0834937e-06               0     0.010459687       1403815.7   3.2107143e-05   1.2702802e-07
    0.098798799      0.64654284               0   7.7357978e-17   -0.0018354376  -1.2253482e-05               0     0.010546843       5577867.4   2.3476066e-05   8.7341048e-08
      0.1009009      0.38581071               0   5.9987161e-17   -0.0029091371  -1.7557359e-05   8.0313695e-20    0.0097030744       9751138.7   1.4382252e-05   5.0142245e-08
       0.103003      0.12511737               0   1.9453675e-17   -0.0035830172   -1.770642e-05   2.6771232e-19    0.0076180738        13923369   4.6714566e-06   1.6260995e-08
     0.10510511               0               0               0   -0.0035361051  -1.3050441e-05   4.7857233e-19    0.0059571322        15925793   1.4441588e-08               0
     0.10720721               0               0               0   -0.0028240043  -3.9600929e-06   7.1108387e-19    0.0046875369        15925793   2.1348519e-08               0
     0.10930931               0               0               0   -0.0025252435  -2.0217032e-07   6.4603568e-19    0.0042453141        15925793   2.6872767e-08               0
     0.11141141               0               0               0   -0.0025065272  -5.7051033e-08   3.7938604e-19    0.0043636495        15925793   3.1460224e-08               0
     0.11351351               0               0               0   -0.0024912955  -7.9423538e-09   1.3768495e-19    0.0044851652        15925793   3.3484647e-08               0
     0.11561562               0               0               0     -0.00247789  -9.1481339e-09  -9.0941829e-20    0.0046083477        15925793   3.4165909e-08               0
     0.11771772               0               0               0   -0.0024532862  -1.0943149e-08  -1.0306774e-19    0.0046185748        15925793   3.3846025e-08               0
     0.11981982               0               0               0   -0.0024238719  -1.2991276e-08  -2.2193171e-20    0.0045802807        15925793   3.3096088e-08               0
     0.12192192               0               0               0   -0.0023930677  -1.3433965e-08               0    0.0045026574        15925793   3.2205103e-08               0
     0.12402402               0               0               0   -0.0023617378  -1.3269481e-08               0    0.0044101598        15925793   3.1260774e-08               0
     0.12612613               0               0               0   -0.0023329535  -1.2615631e-08               0    0.0043365152        15925793   3.0407948e-08               0
     0.12822823               0               0               0   -0.0023050933  -1.1784159e-08               0    0.0042697135        15925793   2.9588334e-08               0
     0.13033033               0               0               0   -0.0022801402  -1.0975258e-08               0    0.0042218841        15925793   2.8860457e-08               0
     0.13243243               0               0               0   -0.0022562999  -1.0174998e-08               0    0.0041813174        15925793   2.8167697e-08               0
     0.13453453               0               0               0   -0.0022347023  -9.4935422e-09  -1.4554611e-19    0.0041442416        15925793   2.7541904e-08               0
     0.13663664               0               0               0   -0.0022140968  -8.8646427e-09  -3.5547913e-19    0.0041087103        15925793   2.6945737e-08               0
     0.13873874               0               0               0   -0.0021951201  -8.3230387e-09  -4.3034872e-19    0.0040733688        15925793    2.640017e-08               0
     0.14084084               0               0               0   -0.0021770464  -7.8298251e-09  -4.3034876e-19    0.0040381327        15925793    2.588265e-08               0
     0.14294294               0               0               0   -0.0021601415  -7.3986771e-09  -4.0685486e-19    0.0040043111        15925793   2.5402239e-08               0
     0.14504505               0               0               0    -0.002144109  -7.0138522e-09  -3.6582613e-19    0.0039715453        15925793   2.4949523e-08               0
     0.14714715               0               0               0   -0.0021288269  -6.6728368e-09  -2.7283389e-19    0.0039401249        15925793    2.451975e-08               0
     0.14924925               0               0               0   -0.0021143568  -6.3792253e-09  -1.2361482e-19    0.0039101606        15925793   2.4114801e-08               0
     0.15135135               0               0               0   -0.0021003312  -6.1053512e-09  -1.9612456e-20     0.003880979        15925793   2.3723344e-08               0
     0.15345345               0               0               0   -0.0020870771  -5.8657265e-09    5.927319e-21    0.0038531557        15925793   2.3355296e-08               0
     0.15555556               0               0               0   -0.0020740682  -5.6324945e-09  -7.5823575e-21    0.0038257521        15925793    2.299512e-08               0
     0.15765766               0               0               0   -0.0020618914  -5.4209457e-09  -1.5354033e-19    0.0037997719        15925793   2.2661642e-08               0
     0.15975976               0               0               0   -0.0020497784  -5.2108491e-09  -2.7379862e-19    0.0037739127        15925793   2.2330218e-08               0
     0.16186186               0               0               0   -0.0020385718  -5.0213877e-09  -2.8865059e-20    0.0037497721        15925793   2.2027974e-08               0
     0.16396396               0               0               0   -0.0020273652  -4.8319264e-09    2.160685e-19    0.0037256316        15925793    2.172573e-08               0
     0.16606607               0               0               0   -0.0020169362  -4.6606263e-09   2.4573859e-19    0.0037030928        15925793    2.144814e-08               0
     0.16816817               0               0               0   -0.0020066144  -4.4918294e-09   2.4573862e-19    0.0036807748        15925793   2.1173947e-08               0
     0.17027027               0               0               0   -0.0019968169  -4.3373758e-09   1.4132415e-19    0.0036594538        15925793   2.0916021e-08               0
     0.17237237               0               0               0   -0.0019872821   -4.190111e-09  -1.5421378e-20    0.0036386326        15925793   2.0666248e-08               0
     0.17447447               0               0               0   -0.0019780414  -4.0508926e-09    -1.05295e-19    0.0036183719        15925793   2.0425461e-08               0
     0.17657658               0               0               0   -0.0019691958  -3.9224883e-09  -1.0529501e-19    0.0035988645        15925793    2.019675e-08               0
     0.17867868               0               0               0    -0.001960448  -3.7965761e-09  -1.1068728e-19    0.0035795298        15925793   1.9971004e-08               0
     0.18078078               0               0               0   -0.0019522164  -3.6838107e-09  -1.4452715e-19    0.0035611062        15925793   1.9760898e-08               0
     0.18288288               0               0               0   -0.0019439848  -3.5710453e-09  -1.7836702e-19    0.0035426826        15925793   1.9550793e-08               0
     0.18498498               0               0               0   -0.0019362238  -3.4702053e-09  -1.1936118e-19    0.0035251422        15925793   1.9354784e-08               0
     0.18708709               0               0               0   -0.0019285372   -3.371254e-09  -4.5651301e-20    0.0035077416        15925793   1.9161008e-08               0
     0.18918919               0               0               0   -0.0019211114  -3.2783696e-09   3.0172542e-20     0.003490805        15925793   1.8974964e-08               0
     0.19129129               0               0               0     -0.00191391  -3.1907081e-09   1.0781627e-19    0.0034742681        15925793   1.8795578e-08               0
     0.19339339               0               0               0    -0.001906788  -3.1046611e-09   1.5848556e-19    0.0034578805        15925793   1.8618531e-08               0
      0.1954955               0               0               0   -0.0019000263   -3.025942e-09   8.6719692e-20    0.0034421715        15925793   1.8452103e-08               0
      0.1975976               0               0               0   -0.0018932647  -2.9472228e-09   1.4953827e-20    0.0034264624        15925793   1.8285674e-08               0
      0.1996997               0               0               0   -0.0018868214  -2.8744702e-09               0    0.0034114781        15925793   1.8128485e-08               0
      0.2018018               0               0               0    -0.001880462  -2.8032881e-09               0    0.0033966845        15925793   1.7973727e-08               0
      0.2039039               0               0               0    -0.001874239  -2.7347587e-09  -2.0248116e-20    0.0033820678        15925793   1.7822886e-08               0
     0.20600601               0               0               0    -0.001868249  -2.6707567e-09  -7.5051985e-20    0.0033677531        15925793   1.7678728e-08               0
     0.20810811               0               0               0    -0.001862259  -2.6067546e-09  -1.2985585e-19    0.0033534383        15925793    1.753457e-08               0
     0.21021021               0               0               0   -0.0018565744  -2.5484467e-09  -1.3463404e-19    0.0033397284        15925793   1.7399134e-08               0
     0.21231231               0               0               0    -0.001850919  -2.4906827e-09  -1.3463406e-19    0.0033260763        15925793    1.726453e-08               0
     0.21441441               0               0               0   -0.0018453939  -2.4350106e-09  -1.1225855e-19    0.0033127741        15925793   1.7133587e-08               0
     0.21651652               0               0               0   -0.0018400486  -2.3822227e-09  -5.9033439e-20    0.0032999541        15925793    1.700769e-08               0
     0.21861862               0               0               0   -0.0018347032  -2.3294349e-09  -5.8083246e-21    0.0032871341        15925793   1.6881794e-08               0
     0.22072072               0               0               0   -0.0018296139  -2.2814415e-09               0    0.0032745564        15925793   1.6762996e-08               0
     0.22282282               0               0               0   -0.0018245559  -2.2340355e-09               0    0.0032620083        15925793   1.6645067e-08               0
     0.22492492               0               0               0   -0.0018195812  -2.1881488e-09               0    0.0032496229        15925793   1.6529444e-08               0
     0.22702703               0               0               0   -0.0018147809  -2.1454488e-09               0    0.0032375788        15925793   1.6418653e-08               0
     0.22912913               0               0               0   -0.0018099807  -2.1027487e-09               0    0.0032255348        15925793   1.6307863e-08               0
     0.23123123               0               0               0   -0.0018053527  -2.0623528e-09   -2.782838e-20    0.0032140014        15925793   1.6201776e-08               0
     0.23333333               0               0               0   -0.0018007935  -2.0228757e-09  -6.6754599e-20    0.0032026718        15925793   1.6097565e-08               0
