#      distance             U_x             U_y             U_z wallShearStr... wallShearStr... wallShearStr...               p           omega               k             nut
  3.0219182e-06     0.018437889   2.6284555e-09  -3.4461356e-23               0               0               0   0.00023276701       5570601.8   3.9968245e-07   3.7390972e-13
  5.0865428e-06     0.031038032   6.6678378e-09  -1.4611533e-23               0               0               0   0.00023276722       1240850.2   1.8252603e-06   3.4559008e-12
  7.2269684e-06     0.044100079   1.3130517e-08  -3.7643223e-23               0               0               0   0.00023276744       495682.18    5.756911e-06   1.9325627e-11
  9.4750924e-06     0.057816665   2.2378948e-08  -5.6458795e-23               0               0               0   0.00023276765       256764.62   1.4417803e-05   7.8819586e-11
  1.1864417e-05     0.072385793   3.4924595e-08   -2.340098e-23               0               0               0   0.00023276789       152802.43   3.1086341e-05   2.5990339e-10
  1.4430548e-05     0.088006877   5.1501827e-08   7.8882611e-23               0               0               0   0.00023276814        99058.22   6.0518593e-05   7.3658729e-10
  1.7211727e-05      0.10486871    7.306871e-08    1.274806e-22               0               0               0   0.00023276843       68139.934    0.0001094036   1.8611126e-09
  2.0249401e-05      0.12312315    1.008201e-07   2.8786652e-23               0               0               0   0.00023276875       49052.781   0.00018656236    4.281412e-09
  2.3588836e-05      0.14283959   1.3617982e-07   -3.045187e-23               0               0               0   0.00023276913       36671.307   0.00030228808      9.0656e-09
  2.7279799e-05      0.16394566   1.8073724e-07  -1.5225935e-23               0               0               0   0.00023276962       28321.835   0.00046603769   1.7755292e-08
  3.1377293e-05      0.18618219   2.3612622e-07               0               0               0               0   0.00023277024       22484.257   0.00068235534   3.2248228e-08
  3.5942381e-05      0.20911572   3.0390859e-07   7.1949546e-23               0               0               0   0.00023277107       18244.023   0.00094682868   5.4497279e-08
  4.1043091e-05      0.23222702    3.855558e-07   1.0791278e-22               0               0               0   0.00023277216       15039.648    0.0012453317    8.618301e-08
  4.6755437e-05       0.2550355    4.825143e-07   1.2149721e-22               0               0               0   0.00023277358       12530.034    0.0015580304   1.2857467e-07
  5.3164546e-05      0.27720465   5.9646095e-07   1.2828724e-22               0               0               0   0.00023277537       10510.288    0.0018656952   1.8205239e-07
  6.0365928e-05      0.29857466   7.2962154e-07  -1.9330798e-22               0               0               0   0.00023277762        8853.579     0.002154508   2.4683784e-07
    6.84669e-05      0.31908961   8.8471446e-07  -4.1173388e-22               0               0               0   0.00023278041       7476.9372    0.0024168738   3.2495168e-07
  7.7588184e-05      0.33871259   1.0647529e-06  -2.1503827e-22               0               0               0   0.00023278388        6324.549    0.0026493282   4.1961671e-07
   8.786571e-05        0.357419   1.2731068e-06   6.1355594e-23               0               0               0   0.00023278817       5357.5391    0.0028511039   5.3377079e-07
  9.9452634e-05      0.37521862   1.5136495e-06    2.723618e-22               0               0               0   0.00023279342       4546.6252     0.003023699   6.6994514e-07
  0.00011252163      0.39216375   1.7909154e-06   5.6552851e-23               0               0               0   0.00023279974       3867.6644    0.0031701505     8.29549e-07
  0.00012726745      0.40834854   2.1104023e-06  -1.5311988e-22               0               0               0   0.00023280723       3299.2827    0.0032941988   1.0127848e-06
  0.00014390985      0.42388504   2.4786915e-06  -3.8032156e-23               0               0               0   0.00023281603       2822.4268    0.0033995541   1.2215792e-06
  0.00016269684      0.43886724   2.9032044e-06   6.8210137e-23               0               0               0   0.00023282636       2421.0096    0.0034893244   1.4605673e-06
  0.00018390838      0.45336296   3.3922393e-06   5.4409902e-22               0               0               0    0.0002328385        2082.004    0.0035658989   1.7344574e-06
  0.00020786057      0.46742739   3.9553811e-06   6.7966286e-22               0               0               0   0.00023285272       1794.8362    0.0036312167   2.0475798e-06
  0.00023491035      0.48110987   4.6037094e-06   2.0377397e-22               0               0               0   0.00023286933       1550.8451     0.003686932   2.4048033e-06
  0.00026546084      0.49445437   5.3499232e-06               0               0               0               0   0.00023288867       1342.9264      0.00373444   2.8115952e-06
   0.0002999673      0.50749999   6.2085925e-06               0               0               0               0   0.00023291116        1165.241    0.0037749077   3.2740851e-06
  0.00033894396      0.52028148   7.1964464e-06  -1.8512469e-22               0               0               0   0.00023293725       1012.9787    0.0038093061   3.7991345e-06
  0.00038297165      0.53282985   8.3326989e-06  -3.7024938e-22               0               0               0   0.00023296745       882.16472    0.0038384383   4.3944103e-06
  0.00043270649      0.54517278   9.6394234e-06   8.0095897e-22               0               0               0   0.00023300237       769.50507    0.0038629647   5.0684601e-06
  0.00048888965       0.5573351   1.1141988e-05    1.555439e-21               0               0               0   0.00023304266       672.26035    0.0038834241     5.83079e-06
  0.00055235838      0.56933922    1.286956e-05   5.6935535e-22               0               0               0    0.0002330891       588.14477    0.0039002511   6.6919395e-06
   0.0006240585      0.58120546   1.4855698e-05               0               0               0               0   0.00023314255       515.24437      0.00391379   7.6635525e-06
  0.00070505852      0.59295243   1.7139043e-05   2.3905851e-22               0               0               0   0.00023320398       451.95102     0.003924306   8.7584365e-06
  0.00079656552       0.6045973   1.9764127e-05   4.7811703e-22               0               0               0   0.00023327449       396.90901    0.0039319938   9.9906042e-06
  0.00089994316       0.6161561   2.2782331e-05   2.3905851e-22               0               0               0   0.00023335532       348.97168    0.0039369844   1.1375287e-05
    0.001016732      0.62764398   2.6253021e-05               0               0               0               0   0.00023344785       307.16616    0.0039393486   1.2928906e-05
   0.0011486725      0.63907552   3.0244894e-05   1.0417272e-21               0               0               0   0.00023355362       270.66453    0.0039391008    1.466898e-05
   0.0012977308      0.65046493   3.4837604e-05   -7.878957e-22               0               0               0   0.00023367437        238.7603    0.0039361995   1.6613947e-05
   0.0014661282      0.66182636   4.0123713e-05  -3.4905338e-21               0               0               0   0.00023381199       210.84895     0.003930547   1.8782867e-05
   0.0016563743      0.67317417   4.6211077e-05  -2.6967081e-21               0               0               0   0.00023396856       186.41202    0.0039219873   2.1194954e-05
   0.0018713042      0.68452326   5.3225754e-05  -1.5854661e-21               0               0               0   0.00023414637       165.00387    0.0039103025   2.3868884e-05
   0.0021141207       0.6958894   6.1315621e-05  -5.4966891e-22               0               0               0   0.00023434785       146.24067    0.0038952072   2.6821802e-05
   0.0023884425      0.70728965   7.0654866e-05  -4.0098699e-22               0               0               0    0.0002345756       129.79134    0.0038763403   3.0067926e-05
   0.0026983575      0.71874285   8.1449672e-05   1.2443674e-21               0               0               0   0.00023483229       115.36989    0.0038532552   3.3616629e-05
   0.0030484842      0.73027019   9.3945446e-05  -2.2368196e-21               0               0               0   0.00023512064       102.72909    0.0038254056   3.7469841e-05
   0.0034440402      0.74189593   0.00010843613  -5.6989929e-21               0               0               0   0.00023544318       91.655125    0.0037921275   4.1618595e-05
   0.0038909203      0.75364833   0.00012527634  -1.8168188e-21               0               0               0   0.00023580216       81.963238     0.003752616   4.6038487e-05
    0.004395784      0.76556074   0.00014489745   3.1397409e-21               0               0               0   0.00023619914       73.494036    0.0037058941   5.0683851e-05
   0.0049661549      0.77767314   0.00016782952  -4.6845661e-21               0               0               0   0.00023663469       66.110557    0.0036507728   5.5480389e-05
   0.0056105328      0.79003402   0.00019473163  -1.3757676e-20               0               0               0    0.0002371076       59.695967     0.003585798   6.0316141e-05
   0.0063385204      0.80270297   0.00022643008   5.3445643e-21               0               0               0   0.00023761291       54.151953    0.0035091826   6.5030759e-05
   0.0071609664      0.81575409   0.00026394772   1.8558413e-20               0               0               0    0.0002381378       49.397964    0.0034187215   6.9403412e-05
   0.0080901272      0.82929279   0.00030865281   2.9365344e-20               0               0               0   0.00023866646       45.366251    0.0033113879   7.3002874e-05
   0.0091398493      0.84349111   0.00036255455   3.4051499e-20               0               0               0   0.00023918415       41.988071    0.0031823959   7.5150135e-05
    0.010325776      0.85859783   0.00042856716   1.6023173e-20               0               0               0   0.00023965468       39.180325    0.0030240949   7.5298483e-05
     0.01166558      0.87491322   0.00051062587   4.0565409e-21               0               0               0   0.00024000764       36.833258    0.0028246291   7.3109969e-05
    0.013179228      0.89277136   0.00061403782   1.7909553e-20               0               0               0   0.00024015096       34.787041    0.0025665988   6.8305523e-05
    0.014889277      0.91247574   0.00074574658    1.657101e-20               0               0               0   0.00023993651       32.818637    0.0022283446   6.0909807e-05
    0.016821209       0.9340322   0.00091052746   5.0714659e-20               0               0               0   0.00023904303       30.697544    0.0017936219   5.1466279e-05
    0.019003816      0.95679117    0.0011121033   7.7419547e-20               0               0               0    0.0002372739        28.14663    0.0012635037   4.0159452e-05
    0.021469624      0.97883322    0.0013395403   4.3864652e-20               0               0               0   0.00023446778       23.077376   0.00068845044   2.6268308e-05
    0.024255377      0.99526704    0.0015166027   2.4054541e-20               0               0               0   0.00022960063       14.332435   0.00023566099   1.2129197e-05
    0.027402591       1.0024697    0.0015843218   5.5561917e-21               0               0               0   0.00022278761       7.3125974   3.6689752e-05   3.1150224e-06
    0.030958166        1.003776    0.0015883044               0               0               0               0   0.00021582928        5.326998   1.7760965e-06   3.2427025e-07
    0.034975088       1.0038179     0.001579505               0               0               0               0   0.00020933814       5.2603575    6.559537e-07   1.2469786e-07
    0.039513219       1.0038155    0.0015693755   1.9703152e-20               0               0               0   0.00020287732       5.2618482   6.5391265e-07   1.2427305e-07
    0.044640187       1.0038176     0.001560151   2.9551639e-20               0               0               0   0.00019621873       5.2622593   6.5412436e-07   1.2430341e-07
    0.050432395       1.0038245    0.0015498642   9.8484511e-21               0               0               0   0.00018935984       5.2622372   6.5413622e-07   1.2430619e-07
    0.056976161       1.0038303    0.0015380528               0               0               0               0   0.00018239834       5.2622296     6.54133e-07   1.2430576e-07
    0.064369002       1.0038309    0.0015254737               0               0               0               0     0.000175509       5.2622238   6.5413179e-07   1.2430567e-07
    0.072721087       1.0038279    0.0015117649               0               0               0               0   0.00016884478       5.2622136   6.5413018e-07    1.243056e-07
    0.082156882       1.0038227    0.0014970799               0               0               0               0   0.00016249314       5.2621961   6.5412763e-07   1.2430553e-07
    0.092817002        1.003815     0.001481188               0               0               0               0   0.00015653503        5.262169   6.5412384e-07   1.2430545e-07
