#      distance             U_x             U_y             U_z wallShearStr... wallShearStr... wallShearStr...               p           omega               k             nut
              0      0.99939884               0               0               0               0               0     0.004662486       63.145855   8.5350208e-06   1.3515841e-07
   0.0021021021      0.99938123               0               0               0               0               0    0.0046806769        63.08619   8.5084135e-06   1.3486426e-07
   0.0042042042      0.99936363               0               0               0               0               0    0.0046988678       63.026525   8.4818063e-06   1.3457011e-07
   0.0063063063      0.99934602               0               0               0               0               0    0.0047170587       62.966859   8.4551991e-06   1.3427596e-07
   0.0084084084      0.99932841               0               0               0               0               0    0.0047352496       62.907194   8.4285919e-06   1.3398181e-07
    0.010510511      0.99930844               0               0               0               0               0    0.0047558675       62.853516   8.4037676e-06   1.3370142e-07
    0.012612613      0.99928701               0               0               0               0               0    0.0047779928       62.803557   8.3800508e-06   1.3342958e-07
    0.014714715      0.99926557               0               0               0               0               0     0.004800118       62.753597   8.3563339e-06   1.3315774e-07
    0.016816817      0.99924413               0               0               0               0               0    0.0048222433       62.703638    8.332617e-06    1.328859e-07
    0.018918919      0.99922269               0               0               0               0               0    0.0048443685       62.653678   8.3089002e-06   1.3261406e-07
    0.021021021      0.99920064               0               0               0               0               0    0.0048671108       62.604654   8.2854752e-06   1.3234463e-07
    0.023123123      0.99917453               0               0               0               0               0     0.004894001       62.561914   8.2640128e-06   1.3209145e-07
    0.025225225      0.99914842               0               0               0               0               0    0.0049208912       62.519175   8.2425504e-06   1.3183828e-07
    0.027327327      0.99912231               0               0               0               0               0    0.0049477814       62.476435    8.221088e-06    1.315851e-07
    0.029429429      0.99909619               0               0               0               0               0    0.0049746716       62.433695   8.1996256e-06   1.3133192e-07
    0.031531532      0.99906861               0               0               0               0               0    0.0050030495       62.392394   8.1786248e-06   1.3108274e-07
    0.033633634      0.99903674               0               0               0               0               0    0.0050357726       62.355295   8.1589725e-06   1.3084523e-07
    0.035735736      0.99900487               0               0               0               0               0    0.0050684958       62.318196   8.1393202e-06   1.3060771e-07
    0.037837838      0.99897299               0               0               0               0               0    0.0051012189       62.281097   8.1196679e-06    1.303702e-07
     0.03993994      0.99894112               0               0               0               0               0    0.0051339421       62.243998   8.1000156e-06   1.3013269e-07
    0.042042042      0.99890267               0               0               0               0               0    0.0051732816       62.211084   8.0817203e-06   1.2990724e-07
    0.044144144       0.9988636               0               0               0               0               0    0.0052132412       62.178563   8.0635522e-06   1.2968291e-07
    0.046246246      0.99882453               0               0               0               0               0    0.0052532008       62.146041   8.0453841e-06   1.2945859e-07
    0.048348348      0.99878513               0               0               0               0               0    0.0052934956       62.113661   8.0272615e-06   1.2923467e-07
     0.05045045      0.99873693               0               0               0               0               0    0.0053425901        62.08498   8.0103334e-06   1.2902151e-07
    0.052552553      0.99868874               0               0               0               0               0    0.0053916846         62.0563   7.9934053e-06   1.2880835e-07
    0.054654655      0.99864054               0               0               0               0               0     0.005440779       62.027619   7.9764772e-06   1.2859518e-07
    0.056756757      0.99858567               0               0               0               0               0    0.0054964597       62.000768   7.9601365e-06   1.2838736e-07
    0.058858859      0.99852555               0               0               0               0               0    0.0055573327       61.975361   7.9442588e-06   1.2818374e-07
    0.060960961      0.99846542               0               0               0               0               0    0.0056182058       61.949953   7.9283811e-06   1.2798012e-07
    0.063063063      0.99839861               0               0               0               0               0     0.005685746       61.925824   7.9128948e-06   1.2777998e-07
    0.065165165      0.99832277               0               0               0               0               0    0.0057623001       61.903424   7.8979378e-06   1.2758454e-07
    0.067267267      0.99824693               0               0               0               0               0    0.0058388542       61.881024   7.8829808e-06   1.2738911e-07
    0.069369369      0.99815767               0               0               0               0               0    0.0059280002        61.85987   7.8684608e-06   1.2719796e-07
    0.071471471      0.99805883               0               0               0               0               0    0.0060261239       61.839606   7.8542523e-06   1.2700986e-07
    0.073573574      0.99795999               0               0               0               0               0    0.0061242477       61.819341   7.8400438e-06   1.2682177e-07
    0.075675676      0.99783127               0               0               0               0               0    0.0062540526       61.803474   7.8267663e-06   1.2663945e-07
    0.077777778       0.9977022               0               0               0               0               0    0.0063842172       61.787657   7.8134995e-06    1.264572e-07
     0.07987988       0.9975353               0               0               0               0               0    0.0065434758        61.76783   7.8000265e-06   1.2627963e-07
    0.081981982      0.99734296               0               0               0               0               0    0.0067222945       61.745309   7.7864149e-06   1.2610522e-07
    0.084084084      0.99712686               0               0               0               0               0    0.0069367131       61.736688   7.7743499e-06   1.2592753e-07
    0.086186186      0.99687073               0               0               0               0               0    0.0072110992       61.751482   7.7648902e-06   1.2574434e-07
    0.088288288      0.99647614               0  -3.2803716e-22               0               0               0    0.0075253869       61.729729   7.7510205e-06   1.2556375e-07
     0.09039039      0.99571871               0  -1.5157134e-21               0               0               0     0.007944239       61.612202   7.7255944e-06   1.2538997e-07
    0.092492492      0.99499099               0   8.6328789e-18               0               0               0    0.0085564972       66.176622   7.8578058e-06   1.2186939e-07
    0.094594595      0.99434161               0   4.0038089e-17               0               0               0    0.0096787402       83.086677   8.4056854e-06   1.0952378e-07
    0.096696697      0.90631288               0   6.0883424e-17  -0.00046046411  -3.0794511e-06               0     0.010451753       1403671.7   8.0943223e-06   9.0302438e-08
    0.098798799      0.64580641               0   6.0884666e-17   -0.0018298364  -1.2237417e-05               0     0.010535423       5577764.4   6.0869036e-06   5.7509105e-08
      0.1009009      0.38535254               0   4.7213086e-17    -0.002899516  -1.7534228e-05   8.0151873e-20    0.0096889653       9751076.9   3.8325257e-06   3.0063937e-08
       0.103003      0.12496879               0   1.5311076e-17   -0.0035696056   -1.768283e-05   2.6717291e-19    0.0076023361        13923349   1.2488686e-06   9.7496536e-09
     0.10510511               0               0               0   -0.0035220361  -1.3032655e-05   4.5848024e-19    0.0059416038        15925793   1.2880364e-08               0
     0.10720721               0               0               0   -0.0028121691  -3.9538906e-06   6.5374322e-19    0.0046739139        15925793   2.0599106e-08               0
     0.10930931               0               0               0   -0.0025160791  -2.0081242e-07   5.7952149e-19    0.0042359701        15925793   2.6522572e-08               0
     0.11141141               0               0               0   -0.0025003296  -5.5971843e-08   3.2271957e-19    0.0043601924        15925793   3.1229712e-08               0
     0.11351351               0               0               0   -0.0024871163  -7.1394372e-09   1.0843681e-19    0.0044860284        15925793   3.3334255e-08               0
     0.11561562               0               0               0   -0.0024752322  -8.6202094e-09   -8.356374e-20      0.00461271        15925793   3.4074903e-08               0
     0.11771772               0               0               0   -0.0024514398  -1.0603156e-08  -9.1198787e-20    0.0046237257        15925793   3.3784815e-08               0
     0.11981982               0               0               0    -0.002422532  -1.2801817e-08  -1.9637476e-20    0.0045850558        15925793   3.3051961e-08               0
     0.12192192               0               0               0   -0.0023919887  -1.3320495e-08               0     0.004506158        15925793   3.2169578e-08               0
     0.12402402               0               0               0    -0.002360827  -1.3203807e-08               0    0.0044120461        15925793   3.1230645e-08               0
     0.12612613               0               0               0   -0.0023321423  -1.2571838e-08               0    0.0043374012        15925793   3.0381368e-08               0
     0.12822823               0               0               0   -0.0023043567  -1.1752841e-08               0     0.004269822        15925793   2.9564632e-08               0
     0.13033033               0               0               0   -0.0022794632  -1.0949434e-08               0    0.0042217303        15925793   2.8839133e-08               0
     0.13243243               0               0               0   -0.0022556769  -1.0151996e-08               0    0.0041810985        15925793   2.8148559e-08               0
     0.13453453               0               0               0    -0.002234129  -9.4723124e-09  -1.4520694e-19    0.0041440312        15925793   2.7524663e-08               0
     0.13663664               0               0               0   -0.0022135715   -8.844722e-09  -3.5465073e-19    0.0041085408        15925793   2.6930265e-08               0
     0.13873874               0               0               0   -0.0021946385  -8.3045635e-09  -4.2934585e-19    0.0040731708        15925793   2.6386231e-08               0
     0.14084084               0               0               0   -0.0021766061   -7.812871e-09  -4.2934589e-19    0.0040378676        15925793   2.5870115e-08               0
     0.14294294               0               0               0    -0.002159738  -7.3832966e-09  -4.0595436e-19    0.0040039719        15925793   2.5390925e-08               0
     0.14504505               0               0               0    -0.002143739  -7.0000844e-09  -3.6510438e-19    0.0039711267        15925793   2.4939294e-08               0
     0.14714715               0               0               0   -0.0021284868   -6.660569e-09  -2.7231623e-19     0.003939643        15925793   2.4510467e-08               0
     0.14924925               0               0               0   -0.0021140426  -6.3683354e-09  -1.2332863e-19    0.0039096325        15925793   2.4106315e-08               0
     0.15135135               0               0               0   -0.0021000409  -6.0956781e-09  -1.9511224e-20    0.0038804141        15925793    2.371558e-08               0
     0.15345345               0               0               0   -0.0020868069  -5.8569906e-09   5.9243296e-21    0.0038525702        15925793    2.334813e-08               0
     0.15555556               0               0               0   -0.0020738174  -5.6246246e-09  -7.6142829e-21    0.0038251487        15925793   2.2988527e-08               0
     0.15765766               0               0               0   -0.0020616573  -5.4136997e-09  -1.5334583e-19    0.0037991593        15925793   2.2655542e-08               0
     0.15975976               0               0               0   -0.0020495608  -5.2042193e-09  -2.7341329e-19    0.0037732907        15925793   2.2324605e-08               0
     0.16186186               0               0               0   -0.0020383682  -5.0152655e-09  -2.8794499e-20    0.0037491372        15925793   2.2022764e-08               0
     0.16396396               0               0               0   -0.0020271756  -4.8263118e-09   2.1582429e-19    0.0037249838        15925793   2.1720923e-08               0
     0.16606607               0               0               0   -0.0020167585  -4.6554417e-09   2.4545625e-19    0.0037024312        15925793   2.1443667e-08               0
     0.16816817               0               0               0   -0.0020064483  -4.4870642e-09   2.4545628e-19    0.0036800994        15925793     2.11698e-08               0
     0.17027027               0               0               0   -0.0019966611  -4.3329747e-09   1.4115533e-19    0.0036587656        15925793   2.0912161e-08               0
     0.17237237               0               0               0   -0.0019871361  -4.1860462e-09  -1.5419781e-20    0.0036379322        15925793   2.0662655e-08               0
     0.17447447               0               0               0   -0.0019779044  -4.0471371e-09  -1.0519569e-19    0.0036176599        15925793   2.0422115e-08               0
     0.17657658               0               0               0    -0.001969067  -3.9190058e-09   -1.051957e-19    0.0035981419        15925793   2.0193624e-08               0
     0.17867868               0               0               0   -0.0019603272  -3.7933603e-09  -1.1058527e-19    0.0035787967        15925793   1.9968091e-08               0
     0.18078078               0               0               0   -0.0019521024  -3.6808292e-09  -1.4440819e-19    0.0035603632        15925793   1.9758167e-08               0
     0.18288288               0               0               0   -0.0019438777  -3.5682981e-09  -1.7823111e-19    0.0035419298        15925793   1.9548243e-08               0
     0.18498498               0               0               0   -0.0019361224  -3.4676602e-09   -1.192657e-19    0.0035243801        15925793   1.9352387e-08               0
     0.18708709               0               0               0   -0.0019284415  -3.3689059e-09  -4.5605345e-20    0.0035069703        15925793   1.9158758e-08               0
     0.18918919               0               0               0   -0.0019210209  -3.2761899e-09    3.016407e-20    0.0034900255        15925793   1.8972849e-08               0
     0.19129129               0               0               0   -0.0019138242  -3.1886722e-09   1.0774915e-19     0.003473481        15925793   1.8793585e-08               0
     0.19339339               0               0               0   -0.0019067068  -3.1027626e-09   1.5837908e-19    0.0034570859        15925793   1.8616658e-08               0
      0.1954955               0               0               0   -0.0018999493  -3.0241515e-09   8.6661428e-20    0.0034413693        15925793   1.8450335e-08               0
      0.1975976               0               0               0   -0.0018931918  -2.9455405e-09    1.494378e-20    0.0034256527        15925793   1.8284012e-08               0
      0.1996997               0               0               0   -0.0018867522  -2.8728837e-09               0    0.0034106606        15925793   1.8126916e-08               0
      0.2018018               0               0               0   -0.0018803963  -2.8017941e-09               0    0.0033958593        15925793   1.7972249e-08               0
      0.2039039               0               0               0   -0.0018741767  -2.7333522e-09  -2.0238632e-20    0.0033812353        15925793   1.7821493e-08               0
     0.20600601               0               0               0   -0.0018681897   -2.669429e-09  -7.5016832e-20    0.0033669139        15925793   1.7677413e-08               0
     0.20810811               0               0               0   -0.0018622027  -2.6055058e-09  -1.2979503e-19    0.0033525926        15925793   1.7533333e-08               0
     0.21021021               0               0               0   -0.0018565207  -2.5472652e-09  -1.3457098e-19    0.0033388767        15925793   1.7397964e-08               0
     0.21231231               0               0               0   -0.0018508679  -2.4895673e-09    -1.34571e-19    0.0033252186        15925793   1.7263427e-08               0
     0.21441441               0               0               0   -0.0018453453   -2.433956e-09  -1.1220597e-19    0.0033119109        15925793   1.7132546e-08               0
     0.21651652               0               0               0   -0.0018400022  -2.3812213e-09  -5.9005789e-20    0.0032990862        15925793   1.7006707e-08               0
     0.21861862               0               0               0   -0.0018346592  -2.3284866e-09  -5.8056041e-21    0.0032862615        15925793   1.6880869e-08               0
     0.22072072               0               0               0   -0.0018295719  -2.2805421e-09               0    0.0032736797        15925793   1.6762121e-08               0
     0.22282282               0               0               0   -0.0018245159  -2.2331844e-09               0    0.0032611276        15925793   1.6644243e-08               0
     0.22492492               0               0               0    -0.001819543  -2.1873441e-09               0    0.0032487376        15925793   1.6528667e-08               0
     0.22702703               0               0               0   -0.0018147445  -2.1446863e-09               0    0.0032366875        15925793    1.641792e-08               0
     0.22912913               0               0               0   -0.0018099459  -2.1020286e-09               0    0.0032246373        15925793   1.6307172e-08               0
     0.23123123               0               0               0   -0.0018053195  -2.0616623e-09  -2.7819933e-20    0.0032131011        15925793   1.6201124e-08               0
     0.23333333               0               0               0   -0.0018007617  -2.0222099e-09  -6.6734336e-20    0.0032017698        15925793    1.609695e-08               0
