#             y             U_x             U_y             U_z              kl              kt             nut           omega
   3.113662e-05      0.11320178   1.0500771e-05   6.3774335e-25      0.09994965    0.0001688979   4.0338655e-24       3237317.5
  5.3394177e-05      0.19334875   2.7622137e-05   9.9656774e-24     0.099913996   9.6849112e-06   1.3162653e-23       222226.74
  7.7022295e-05      0.27841031    5.593849e-05   5.7460877e-23     0.099876173   2.1348218e-06   5.0258635e-23        53822.18
  0.00010210537      0.36868219   9.7328581e-05   1.5050925e-22     0.099836079   1.2240165e-06   4.2673097e-22        21805.76
  0.00012873299      0.46447472    0.0001538473   8.4566853e-23     0.099793623   1.5528902e-06    6.018959e-21       11266.465
  0.00015700027      0.56611229   0.00022799665  -7.3816558e-23     0.099748741    2.807132e-06   8.2340994e-20       6668.4303
  0.00018700818      0.67393217   0.00032264823  -9.7810973e-23     0.099701402   5.3895013e-06   9.2491512e-19       4300.1855
  0.00021886389      0.78828268   0.00044104895  -4.6417922e-23     0.099651636   1.0064654e-05   8.4418764e-18       2940.8042
  0.00025268119      0.90952021   0.00058686285   1.3211846e-23     0.099599552    1.797211e-05   6.4188868e-17       2098.9101
  0.00028858087        1.038005   0.00076421661   4.0467194e-23     0.099545378   3.0730418e-05   4.1827857e-16       1547.4211
  0.00032669115       1.1740954    0.0009777375  -2.6433014e-23     0.099489507   5.0590138e-05   2.3939797e-15       1170.2847
  0.00036714817        1.318139    0.0012325853  -1.5497567e-23      0.09943256   8.0635059e-05   1.2276185e-14       903.47268
  0.00041009642       1.4704625    0.0015344727   8.7680664e-23      0.09937548   0.00012504112   5.7299747e-14       709.46756
  0.00045568931       1.6313561    0.0018896677  -3.2942215e-23     0.099319642   0.00018940645   2.4648896e-13       565.19118
  0.00050408968       1.8010549    0.0023049681  -1.9878183e-22     0.099267024   0.00028116882   9.8684201e-13       455.86698
  0.00055547043       1.9797138    0.0027876341   9.5266098e-25     0.099220421   0.00041012928   3.7052765e-12       371.71029
  0.00061001506       2.1673767    0.0033452634   1.8416307e-22     0.099183752   0.00058910299   1.3124239e-11       306.05354
   0.0006679184       2.3639381    0.0039855835  -4.4935518e-23     0.099162463   0.00083471942   4.4049245e-11       254.23905
  0.00072938728        2.569096    0.0047161374  -2.2363188e-22     0.099164067    0.0011683933   1.4054688e-10       212.94135
  0.00079464125       2.7822973     0.005543831   -1.411825e-22     0.099198818     0.001617484     4.27257e-10       179.73896
  0.00086391338       3.0026743    0.0064743089   1.6599653e-24     0.099280413    0.0022166513    1.239112e-09       152.83646
   0.0009374511       3.2289751    0.0075111284   2.2927039e-22     0.099426353    0.0030093988   3.4298009e-09       130.87946
   0.0010155171        3.459488    0.0086547064   1.9647509e-22     0.099656964    0.0040497686   9.0588242e-09       112.82903
   0.0010983902       3.6919625    0.0099010363  -2.0322481e-22     0.099990806    0.0054041091   2.2825303e-08       97.875112
   0.0011863663       3.9235295     0.011240207  -2.7704947e-22      0.10043234    0.0071527877   5.4880518e-08       85.376589
   0.0012797599       4.1506236     0.012654902   -1.162763e-22      0.10094597    0.0093915795   1.2599665e-07        74.82073
   0.0013789043       4.3689174     0.014119142  -2.3201807e-22      0.10141184     0.012221834   2.7723645e-07       65.815758
   0.0014841538       4.5733404     0.015596951  -1.4954111e-22      0.10157189     0.015631494   5.8079575e-07       58.198363
   0.0015958843       4.7586521     0.017043983   3.1691799e-22      0.10104362     0.019263643   1.0891145e-06       52.066169
   0.0017144948       4.9208116     0.018415157   3.0411765e-22     0.099564362     0.022523057   1.7571794e-06       47.408352
    0.001840409       5.0578924     0.019671133  -8.0810578e-23     0.097350132     0.025037987   2.5310777e-06       43.813405
   0.0019740768        5.169625     0.020777509   9.5817361e-23     0.095034106     0.026803324   3.5144323e-06       40.755832
   0.0021159754       5.2567726     0.021705257   3.5643766e-22     0.093184595     0.027984818   4.9918148e-06       37.936141
   0.0022666117       5.3212548     0.022439014   1.5277562e-22     0.092025152     0.028768629   7.3876535e-06        35.26641
   0.0024265239       5.3663607     0.022985089  -1.5153262e-22     0.091502042     0.029309786   1.1233506e-05       32.747806
    0.002596283       5.3963766     0.023370494  -1.9432117e-22     0.091433915     0.029722153   1.7040859e-05       30.407098
   0.0027764954       5.4157193     0.023633273   7.9271295e-23     0.091628222     0.030077864   2.5037315e-05       28.269266
   0.0029678048       5.4281015     0.023810437   1.3855836e-22     0.091943791     0.030414044   3.4961648e-05       26.347764
   0.0031708945       5.4361607     0.023930527  -6.9917503e-23     0.092292344     0.030743696   4.6171478e-05       24.643847
     0.00338649       5.4415594     0.024012521  -8.8926653e-24     0.092624724     0.031066513   5.7966983e-05       23.149853
   0.0036153613       5.4452829     0.024068169   1.6231994e-22     0.092920472     0.031376727   6.9806739e-05       21.853045
   0.0038583258         5.44791     0.024104695   6.1649641e-23      0.09317321     0.031667522   8.1316658e-05       20.738438
   0.0041162514       5.4497903     0.024126662  -7.9121471e-23     0.093381995     0.031933028   9.2221721e-05       19.790442
   0.0043900594       5.4511437     0.024137056  -6.2428173e-23     0.093547613     0.032169019   0.00010230149        18.99365
   0.0046807278       5.4521147     0.024137923  -5.7545205e-23      0.09367238     0.032373037   0.00011137872       18.333083
   0.0049892948        5.452802     0.024130704   1.2750174e-23     0.093761031     0.032544293   0.00011932302        17.79416
   0.0053168625       5.4532752     0.024116442   9.9930856e-23     0.093820694     0.032683504   0.00012605603       17.362555
   0.0056646009       5.4535849     0.024095921    8.392195e-24     0.093859474     0.032792691   0.00013154244       17.024071
   0.0060337521       5.4537691     0.024069737   -5.073978e-23     0.093884597     0.032874953   0.00013570731       16.764649
   0.0064256347       5.4538568     0.024038388  -6.9744846e-23     0.093901306     0.032934168   0.00013845428       16.570546
   0.0068416484       5.4538701     0.024002228  -9.6832209e-23     0.093912835     0.032974642   0.00013999761       16.428692
    0.007283279        5.453826     0.023961471   3.6867469e-23     0.093921021     0.033000719   0.00014086234       16.327152
   0.0077521041       5.4537376     0.023916342   1.0871687e-22     0.093926932     0.033016401   0.00014142007       16.255572
   0.0082497982       5.4536152     0.023866966   2.3263898e-23     0.093931256     0.033025066   0.00014180045       16.205466
    0.008778139       5.4534661     0.023813342   3.3827362e-23     0.093934466     0.033029315   0.00014206394       16.170288
   0.0093390136       5.4532949     0.023755402   2.6572686e-23     0.093936892     0.033030977   0.00014224761       16.145264
   0.0099344254        5.453104      0.02369297   -2.647108e-23     0.093938759     0.033031228   0.00014237524        16.12709
    0.010566501       5.4528941     0.023625792   1.8641003e-23     0.093940219     0.033030763   0.00014246202       16.113559
    0.011237498       5.4526648     0.023553542   4.1697551e-23     0.093941376     0.033029962   0.00014251781        16.10323
    0.011949813       5.4524146     0.023475835   4.4656602e-23     0.093942298     0.033029021   0.00014254938       16.095172
    0.012705991       5.4521415     0.023392232   6.6380217e-24     0.093943036     0.033028039    0.0001425618        16.08877
    0.013508733       5.4518434     0.023302247  -8.9106697e-23     0.093943625     0.033027063   0.00014255914       16.083613
    0.014360904       5.4515176     0.023205342  -3.9406958e-23     0.093944089      0.03302611   0.00014254477       16.079413
    0.015265551       5.4511614     0.023100933    7.125196e-23     0.093944449      0.03302519   0.00014252149       16.075959
    0.016225903        5.450772     0.022988379   5.7292915e-23      0.09394472       0.0330243   0.00014249166       16.073096
    0.017245391       5.4503467     0.022866989  -1.4450331e-23     0.093944911     0.033023436   0.00014245729       16.070702
    0.018327656       5.4498824     0.022736015  -7.8457359e-23     0.093945033     0.033022592    0.0001424201       16.068682
    0.019476565       5.4493764     0.022594651  -3.5332486e-23     0.093945091      0.03302176   0.00014238162        16.06696
     0.02069622       5.4488257     0.022442026   4.2380135e-23     0.093945091     0.033020932   0.00014234326       16.065476
    0.021990978       5.4482276     0.022277203   3.3934589e-23     0.093945035       0.0330201   0.00014230634       16.064179
    0.023365464       5.4475795     0.022099176   4.5659796e-23     0.093944927     0.033019255    0.0001422721        16.06303
    0.024824587       5.4468788     0.021906868   1.5554812e-23     0.093944769      0.03301839   0.00014224173       16.061996
    0.026373559       5.4461236     0.021699126   -6.141367e-23     0.093944563     0.033017498   0.00014221635       16.061049
    0.028017912       5.4453121      0.02147473  -5.1348598e-24     0.093944309     0.033016572   0.00014219704       16.060168
     0.02976352       5.4444431     0.021232386   1.9684206e-23      0.09394401     0.033015606   0.00014218479       16.059334
    0.031616619       5.4435159     0.020970739  -1.1148066e-22     0.093943666     0.033014597   0.00014218048       16.058533
    0.033583826       5.4425305     0.020688366  -1.6861353e-22     0.093943279     0.033013541   0.00014218491       16.057753
    0.035672168       5.4414877     0.020383804  -1.2997594e-22     0.093942851     0.033012436   0.00014219866       16.056985
    0.037889105        5.440389     0.020055528  -4.3296519e-23     0.093942384     0.033011283   0.00014222213       16.056222
    0.040242556        5.439237     0.019702007   3.8193894e-23      0.09394188     0.033010082   0.00014225556       16.055459
    0.042740925        5.438035     0.019321667    1.037147e-22     0.093941344     0.033008837   0.00014229899       16.054694
    0.045393137       5.4367872     0.018912982   1.8309989e-22     0.093940777     0.033007552   0.00014235223       16.053924
    0.048208665       5.4354988     0.018474401    2.816712e-22     0.093940185     0.033006233   0.00014241485        16.05315
    0.051197566       5.4341759     0.018004496    3.827007e-22     0.093939572     0.033004886   0.00014248622       16.052373
    0.054370516       5.4328254     0.017501828   2.9394738e-22     0.093938942     0.033003521    0.0001425655       16.051596
    0.057738847       5.4314546     0.016965179   9.3743067e-23     0.093938301     0.033002145   0.00014265166        16.05082
    0.061314592       5.4300718     0.016393313   9.9838916e-24     0.093937653     0.033000769   0.00014274355        16.05005
     0.06511052       5.4286856     0.015785328    6.711457e-23     0.093937005     0.032999402   0.00014283989        16.04929
    0.069140193       5.4273048     0.015140264  -2.7448898e-23     0.093936361     0.032998054   0.00014293936       16.048543
    0.073418001       5.4259385     0.014457614  -3.2194855e-22     0.093935727     0.032996736   0.00014304055       16.047816
    0.077959226        5.424596     0.013736705  -1.4063564e-22     0.093935107     0.032995456   0.00014314212        16.04711
    0.082780087       5.4232863     0.012977435   1.3722753e-22     0.093934507     0.032994222   0.00014324274       16.046432
    0.087897803       5.4220186     0.012179328  -1.1909633e-22     0.093933931     0.032993044   0.00014334118       16.045785
    0.093330656       5.4208015     0.011342588   3.4303553e-23     0.093933383     0.032991927   0.00014343625       16.045172
