#             y             U_x             U_y             U_z              kl              kt             nut           omega
   3.113662e-05     0.053851222   2.0903407e-07   1.2273227e-23      0.10273338    0.0001688942   1.9137027e-24       3237316.4
  5.3394177e-05     0.091972381   5.5215535e-07   7.1344791e-24      0.10467851    9.675019e-06   6.1714653e-24       222225.67
  7.7022295e-05      0.13242769   1.1220855e-06   -5.427173e-24      0.10675341    2.114332e-06   2.2681602e-23       53821.287
  0.00010210537      0.17535916   1.9586331e-06  -9.4770485e-24      0.10896731   1.1801236e-06   1.8118198e-22       21804.676
  0.00012873299       0.2209173   3.1058758e-06  -3.7523334e-24      0.11133019   1.4528444e-06   2.4664182e-21       11265.122
  0.00015700027      0.26926159   4.6178296e-06  -4.4982407e-25      0.11385287   2.5865124e-06   3.3291842e-20       6666.7746
  0.00018700818        0.320561   6.5571704e-06  -3.4257008e-24       0.1165471   4.9364177e-06   3.7240011e-19       4298.1923
  0.00021886389      0.37499452   8.9957237e-06  -3.4899176e-24       0.1194257   9.1978412e-06   3.3991119e-18       2938.4646
  0.00025268119      0.43275165   1.2015791e-05   7.1253942e-24      0.12250272   1.6412875e-05   2.5915339e-17       2096.2131
  0.00028858087      0.49403301   1.5711672e-05    1.455195e-23      0.12579359   2.8067248e-05   1.6972783e-16        1544.352
  0.00032669115       0.5590509   2.0191261e-05    3.315504e-24      0.12931538   4.6236412e-05   9.7885094e-16        1166.825
  0.00036714817      0.62802985   2.5577735e-05  -1.4668367e-23      0.13308708   7.3782213e-05   5.0735783e-15        899.6009
  0.00041009642       0.7012072   3.2011373e-05  -3.0257831e-23      0.13712999    0.0001146135   2.4028757e-14       705.15988
  0.00045568931      0.77883368   3.9651456e-05  -1.5373681e-23      0.14146813   0.00017403117   1.0538991e-13       560.42173
  0.00050408968      0.86117393   4.8678237e-05   3.5994573e-23      0.14612889   0.00025918646   4.3280618e-13       450.60847
  0.00055547043      0.94850702   5.9294753e-05   3.4884384e-23      0.15114379   0.00037969291   1.6794783e-12       365.93478
  0.00061001506       1.0411269     7.17284e-05  -1.7259117e-23      0.15654944   0.00054844923   6.2054397e-12       299.73352
   0.0006679184       1.1393427   8.6232003e-05  -1.7261962e-23      0.16238888     0.000782756   2.1975343e-11       247.34898
  0.00072938728       1.2434789   0.00010308404   3.4372993e-23      0.16871319    0.0011058473   7.5014333e-11        205.4597
  0.00079464125       1.3538752    0.0001225881   4.5411004e-23      0.17558373    0.0015490183   2.4808818e-10         171.651
  0.00086391338       1.4708857   0.00014507176  -2.3458718e-23      0.18307483    0.0021546245   7.9860893e-10       144.13769
   0.0009374511       1.5948748   0.00017088239  -1.7613382e-23      0.19127727    0.0029803771   2.5130885e-09       121.57967
   0.0010155171       1.7262068   0.00020036718   3.0631305e-23      0.20030204    0.0041056062   7.7624159e-09       102.95653
   0.0010983902       1.8652117   0.00023385293  -4.3845402e-23      0.21028288    0.0056405682   2.3618648e-08       87.480401
   0.0011863663       2.0120809   0.00027190187    1.512369e-23      0.22137173    0.0077402089   7.0936378e-08       74.534808
   0.0012797599       2.1665609   0.00031671661   1.4377119e-22      0.23370726       0.0106096   2.0909174e-07       63.658097
   0.0013789043       2.3272965   0.00037448661  -1.8847329e-22      0.24730331     0.014387186   5.6854066e-07       54.656394
   0.0014841538       2.4914146   0.00045497349  -7.9688141e-22      0.26179878     0.018847518   1.2734468e-06       47.664365
   0.0015958843       2.6556252   0.00056704736  -7.7800893e-22      0.27623458     0.023396695   2.2516003e-06       42.761476
   0.0017144948       2.8184718    0.0007140271   3.0463377e-23      0.28927672     0.027564551   3.1929614e-06       39.540947
    0.001840409       2.9809356   0.00089282677   2.7960969e-22      0.29981521     0.031260599   3.8869001e-06       37.322719
   0.0019740768       3.1444579    0.0010971849  -2.7856509e-22      0.30718921     0.034551471   4.4326293e-06       35.605021
   0.0021159754       3.3094051    0.0013221836  -2.5324125e-22      0.31091994     0.037470882    4.956383e-06       34.145102
   0.0022666117       3.4754356    0.0015668587   2.6802431e-23      0.31055848     0.040018758   5.4728034e-06       32.832803
   0.0024265239       3.6420594    0.0018319647   2.5042646e-22      0.30574546     0.042190854     5.97773e-06        31.61113
    0.002596283       3.8087102    0.0021174449   6.8356465e-22      0.29628699     0.043983097   6.4670282e-06        30.44846
   0.0027764954       3.9747301    0.0024225502   1.2281286e-22      0.28223625     0.045389218   6.9379749e-06       29.326318
   0.0029678048       4.1393481    0.0027458598  -3.7533185e-22      0.26397813     0.046398362   7.3919231e-06       28.232663
   0.0031708945       4.3015425    0.0030853875   2.6772082e-22      0.24231213     0.046993598   7.8691048e-06       27.155493
     0.00338649       4.4597067    0.0034385447  -1.3535638e-22      0.21843969     0.047153051   8.4812108e-06       26.076262
   0.0036153613       4.6114895     0.003802062  -8.9711778e-22      0.19377181     0.046854143   9.3509636e-06       24.972491
   0.0038583258       4.7541106    0.0041721531  -1.1252234e-22       0.1697238      0.04608065   1.0569165e-05       23.828167
   0.0041162514       4.8848078    0.0045440267   7.6765652e-22      0.14759271     0.044832608   1.2237396e-05       22.637782
   0.0043900594       5.0012151    0.0049112775   1.0910305e-21       0.1284052     0.043137103   1.4465167e-05       21.404257
   0.0046807278       5.1017958    0.0052662883   1.3895455e-21      0.11276878     0.041055496   1.7318929e-05       20.138374
   0.0049892948       5.1861756    0.0056011644    7.739065e-22      0.10082647     0.038682666   2.0785003e-05       18.858605
   0.0053168625       5.2551401    0.0059086516  -7.6946091e-22     0.092321488     0.036136893   2.4764223e-05       17.588998
   0.0056646009       5.3103075    0.0061828586  -1.3845137e-21     0.086730651     0.033543654   2.9117971e-05       16.355739
   0.0060337521       5.3536768    0.0064196852   -4.211423e-22     0.083409773      0.03101933   3.3743884e-05       15.183608
   0.0064256347       5.3872685    0.0066171054   5.0332905e-22     0.081709935     0.028659551   3.8628425e-05       14.093314
   0.0068416484        5.412936    0.0067753406   3.4081452e-22     0.081062849     0.026533512   4.3834917e-05        13.10003
    0.007283279       5.4323045    0.0068967488  -2.6163854e-22     0.081023823     0.024683205   4.9444341e-05        12.21295
   0.0077521041       5.4467614    0.0069853174  -5.4852823e-22     0.081276668     0.023125778   5.5492347e-05       11.435537
   0.0082497982       5.4574606    0.0070458661    -2.88379e-22      0.08162797     0.021857666   6.1931643e-05       10.766226
    0.008778139       5.4653301    0.0070832702   2.0914552e-22     0.081977412     0.020859545   6.8638258e-05        10.19941
   0.0093390136       5.4710919    0.0071019167   3.6840177e-22     0.082281271     0.020101515   7.5442699e-05       9.7265891
   0.0099344254       5.4752913    0.0071054456   9.1166793e-23     0.082528449      0.01954796    8.216089e-05        9.337547
    0.010566501       5.4783322    0.0070967244  -1.8288959e-22     0.082722532     0.019161663   8.8618211e-05       9.0214105
    0.011237498       5.4805106    0.0070779385  -3.3352916e-22     0.082871821     0.018906903   9.4663748e-05       8.7674899
    0.011949813       5.4820431     0.007050721  -3.0193536e-22      0.08298496     0.018751468   0.00010017694       8.5658431
    0.012705991       5.4830883    0.0070162789  -1.1291825e-22     0.083069518     0.018667716   0.00010506893       8.4075776
    0.013508733       5.4837639    0.0069754996   2.5926183e-22     0.083131783     0.018632925   0.00010927639       8.2849425
    0.014360904       5.4841576    0.0069290092   6.3632249e-22     0.083176899     0.018629175   0.00011271775       8.1912846
    0.015265551       5.4843356     0.006877341   2.4892117e-22     0.083209039     0.018642948   0.00011514488       8.1209338
    0.016225903       5.4843476    0.0068208271  -2.9636684e-22     0.083231546     0.018664595   0.00011639938       8.0690698
    0.017245391         5.48423    0.0067595963  -2.1799434e-22     0.083247052     0.018687736   0.00011686952       8.0316042
    0.018327656       5.4840099    0.0066938808   2.9270889e-24     0.083257585     0.018708623   0.00011708894       8.0050923
    0.019476565       5.4837075    0.0066237969   4.1059781e-23     0.083264657     0.018725503   0.00011725244       7.9866744
     0.02069622       5.4833376    0.0065493338  -1.6210526e-23     0.083269363     0.018738004   0.00011737323       7.9740374
    0.021990978       5.4829091    0.0064704852   2.1413909e-22     0.083272463     0.018746579   0.00011745104       7.9653788
    0.023365464       5.4824269    0.0063871669   2.3302841e-22     0.083274468     0.018752051   0.00011749095       7.9593585
    0.024824587       5.4818926    0.0062992557  -1.6766902e-22     0.083275708     0.018755294   0.00011750208       7.9550338
    0.026373559        5.481306    0.0062065982  -9.5253717e-23     0.083276392     0.018757045    0.0001174946       7.9517781
    0.028017912        5.480666    0.0061090229   3.2140944e-23      0.08327665     0.018757841   0.00011747759       7.9491962
     0.02976352        5.479971    0.0060063503  -8.0680499e-23     0.083276567     0.018758028   0.00011745827       7.9470479
    0.031616619       5.4792199    0.0058983999   -9.050118e-23     0.083276199      0.01875781   0.00011744201       7.9451885
    0.033583826       5.4784119    0.0057849939   6.7841416e-24     0.083275589     0.018757301   0.00011743271       7.9435287
    0.035672168       5.4775469    0.0056659621    3.161884e-22     0.083274766     0.018756564    0.0001174332       7.9420104
    0.037889105       5.4766256    0.0055411412   2.6728948e-22     0.083273756     0.018755637   0.00011744564       7.9405935
    0.040242556       5.4756493    0.0054103814  -1.6197431e-22     0.083272582     0.018754546   0.00011747154       7.9392492
    0.042740925       5.4746205    0.0052735417  -1.4376791e-22     0.083271261      0.01875331   0.00011751179       7.9379564
    0.045393137       5.4735424    0.0051304996   1.4368856e-22     0.083269813     0.018751947   0.00011756677       7.9366998
    0.048208665       5.4724189    0.0049811394   1.3335787e-22     0.083268252     0.018750473   0.00011763652       7.9354688
    0.051197566       5.4712548    0.0048253705  -1.3762095e-22     0.083266596     0.018748905   0.00011772069       7.9342563
    0.054370516       5.4700559    0.0046631046  -2.6976418e-22      0.08326486     0.018747259   0.00011781858       7.9330582
    0.057738847       5.4688283    0.0044942838  -9.1192921e-23      0.08326306      0.01874555   0.00011792916       7.9318728
    0.061314592        5.467579    0.0043188401   6.7216003e-23     0.083261211     0.018743795   0.00011805118       7.9307001
     0.06511052       5.4663152    0.0041367366   3.0003559e-23     0.083259329     0.018742011    0.0001181832        7.929542
    0.069140193       5.4650446    0.0039479339  -1.6653499e-24     0.083257428     0.018740211    0.0001183237       7.9284012
    0.073418001       5.4637754     0.003752388  -3.3356406e-23     0.083255525     0.018738414   0.00011847108       7.9272815
    0.077959226       5.4625157    0.0035500484  -3.7502126e-24     0.083253634     0.018736632   0.00011862367       7.9261872
    0.082780087       5.4612738    0.0033408035   7.1210148e-23     0.083251769     0.018734882   0.00011877999        7.925123
    0.087897803       5.4600582    0.0031246039   8.9048699e-23     0.083249945     0.018733175   0.00011893869       7.9240943
    0.093330656       5.4588777    0.0029011902   1.5328551e-22     0.083248177     0.018731527   0.00011909855       7.9231064
