#             x             U_x             U_y             U_z              kl              kt             nut           omega
   -0.046805254       5.4000316   0.00048592184   3.7277175e-23      0.09983785     0.047159073   0.00017140517       23.746291
   -0.040820451       5.4001347     0.001448502   3.5810501e-22     0.099531362     0.046270252   0.00016976882       23.270056
   -0.035593767       5.4003131    0.0022974094   6.6340566e-22     0.099263456     0.045506355   0.00016833646       22.860212
   -0.031029167       5.4005439    0.0030269246   5.8417978e-22     0.099033855     0.044862946   0.00016711274       22.514539
   -0.027042782       5.4007965    0.0036517783   3.8777191e-22     0.098836621     0.044318599   0.00016606632       22.221737
   -0.023561368       5.4010543    0.0041860296   3.6164359e-22     0.098666816     0.043856092   0.00016516884       21.972698
   -0.020520958       5.4013079    0.0046424113   2.3358616e-22     0.098520339     0.043461645   0.00016439729       21.760115
   -0.017865688       5.4015512    0.0050321982  -1.5183696e-22     0.098393774     0.043124155   0.00016373318       21.578088
   -0.015546772       5.4017798     0.005365239  -2.9835515e-22     0.098284256     0.042834595   0.00016316092       21.421807
   -0.013521602       5.4019913    0.0056500343     1.78659e-23     0.098189372     0.042585569   0.00016266707       21.287325
   -0.011752967       5.4021849    0.0058938497   1.5875972e-22      0.09810708     0.042370963   0.00016224025       21.171373
   -0.010208373       5.4023606    0.0061028555  -2.2925539e-23     0.098035642     0.042185694   0.00016187088       21.071228
  -0.0088594378       5.4025189    0.0062822724  -2.4333568e-23     0.097973579      0.04202551   0.00016155091       20.984609
  -0.0076813777       5.4026609    0.0064365096   1.8214365e-23     0.097919623     0.041886831   0.00016127347       20.909594
   -0.006652547       5.4027876    0.0065692884  -1.7412846e-22     0.097872687     0.041766634    0.0001610327       20.844558
  -0.0057540422       5.4029004      0.00668375  -1.6071248e-22     0.097831837     0.041662353    0.0001608236        20.78812
  -0.0049693545       5.4030004    0.0067825491   2.3097741e-22     0.097796269     0.041571803   0.00016064188       20.739103
  -0.0042840662       5.4030889    0.0068679319    2.570224e-22     0.097765287     0.041493118   0.00016048385       20.696501
   -0.003685586       5.4031671    0.0069418029  -1.2008445e-22     0.097738291       0.0414247   0.00016034635        20.65945
  -0.0031629175        5.403236    0.0070057797  -3.8343337e-23     0.097714761     0.041365174   0.00016022667       20.627212
  -0.0027064575       5.4032967    0.0070612392   1.8235843e-22     0.097694247     0.041313361   0.00016012245       20.599146
  -0.0023078191       5.4033501    0.0071093558  -1.2880391e-22     0.097676359     0.041268242   0.00016003167       20.574704
  -0.0019596776        5.403397    0.0071511335  -3.7618984e-22     0.097660757     0.041228937   0.00015995255       20.553409
  -0.0016556366       5.4034382    0.0071874319  -1.6442239e-22     0.097647147     0.041194687    0.0001598836       20.534852
  -0.0013901097       5.4034743    0.0072189889   1.5583951e-22     0.097635273     0.041164832   0.00015982348       20.518675
   -0.001158218        5.403506    0.0072464387   1.6710067e-22     0.097624912     0.041138803   0.00015977105        20.50457
   -0.000955701       5.4035337    0.0072703272  -1.8206625e-23      0.09761587     0.041116104   0.00015972532       20.492268
 -0.00077883757       5.4035581    0.0072911254   5.7439594e-23     0.097607979     0.041096306   0.00015968544       20.481539
 -0.00062437811       5.4035793    0.0073092397   1.1567358e-22     0.097601092     0.041079035   0.00015965064       20.472178
 -0.00048948463        5.403598    0.0073250218  -9.7817477e-23      0.09759508     0.041063966   0.00015962027       20.464011
 -0.00037167862       5.4036143     0.007338776  -1.7345605e-22     0.097589832     0.041050817   0.00015959377       20.456884
 -0.00026879555       5.4036285    0.0073507659  -3.0936312e-23      0.09758525     0.041039342   0.00015957064       20.450665
 -0.00017894507        5.403641    0.0073612202  -5.7888942e-23      0.09758125     0.041029328   0.00015955046       20.445236
  -0.0001004763       5.4036519    0.0073703373  -1.6023322e-22     0.097577758     0.041020586   0.00015953284       20.440498
 -3.1947465e-05       5.4036615    0.0073783476  -4.4006631e-23     0.097574686     0.041012898   0.00015951735       20.436331
  2.9991242e-05       5.4036703    0.0073856274   1.1963395e-22     0.097571889       0.0410059   0.00015950324       20.432537
  9.0286504e-05       5.4036787     0.007392626   1.5380195e-22     0.097569195      0.04099916   0.00015948966       20.428883
  0.00015121058       5.4036871    0.0073996222   6.3215861e-23     0.097566498     0.040992416   0.00015947606       20.425228
  0.00021277004       5.4036957    0.0074066843   3.0085121e-23     0.097563774     0.040985605   0.00015946233       20.421535
   0.0002749715       5.4037043    0.0074138128   5.1949094e-23     0.097561022     0.040978725   0.00015944845       20.417806
  0.00033782165        5.403713    0.0074210083  -6.2622914e-23     0.097558242     0.040971777   0.00015943444       20.414039
  0.00040132727       5.4037219    0.0074282712  -1.5051373e-22     0.097555434     0.040964758   0.00015942029       20.410234
  0.00046549519       5.4037308     0.007435602  -2.9134343e-23     0.097552597      0.04095767   0.00015940599       20.406391
  0.00053033231       5.4037398    0.0074430015   1.2736795e-22     0.097549731     0.040950511   0.00015939155        20.40251
  0.00059584562        5.403749      0.00745047    5.675541e-23     0.097546836      0.04094328   0.00015937697        20.39859
  0.00066204216       5.4037582    0.0074580081  -4.5389192e-23     0.097543911     0.040935977   0.00015936223        20.39463
  0.00072892907       5.4037676    0.0074656164   -4.517751e-23     0.097540956     0.040928601   0.00015934735       20.390631
  0.00079651354        5.403777    0.0074732954  -8.5130702e-23     0.097537971     0.040921151   0.00015933233       20.386592
  0.00086480285       5.4037866    0.0074810457  -7.6958713e-23     0.097534956     0.040913627   0.00015931715       20.382513
  0.00093380434       5.4037963    0.0074888678   -5.039547e-24      0.09753191     0.040906028   0.00015930182       20.378393
   0.0010035254        5.403806    0.0074967622   6.1954524e-23     0.097528833     0.040898353   0.00015928633       20.374231
   0.0010739737       5.4038159    0.0075047296   1.5175171e-22     0.097525725     0.040890602   0.00015927069       20.370028
   0.0011451566       5.4038259    0.0075127704   1.1636376e-22     0.097522585     0.040882773    0.0001592549       20.365784
   0.0012170819       5.4038361    0.0075208853  -9.4997772e-23     0.097519413     0.040874867   0.00015923894       20.361496
   0.0012897573       5.4038463    0.0075290747  -1.8098102e-22     0.097516209     0.040866881   0.00015922283       20.357166
   0.0013631906       5.4038567    0.0075373393  -8.2797916e-23     0.097512972     0.040858817   0.00015920656       20.352793
   0.0014373898       5.4038671    0.0075456796    1.140114e-23     0.097509703     0.040850672   0.00015919012       20.348377
   0.0015123628       5.4038777    0.0075540961   2.6496106e-23       0.0975064     0.040842446   0.00015917352       20.343916
   0.0015881177       5.4038884    0.0075625894  -1.2677403e-23     0.097503063     0.040834139   0.00015915675       20.339411
   0.0016646626       5.4038993    0.0075711601  -1.1661408e-22     0.097499692     0.040825749   0.00015913982       20.334862
   0.0017420058       5.4039102    0.0075798087  -1.4104036e-22     0.097496288     0.040817276   0.00015912272       20.330267
   0.0018201557       5.4039213    0.0075885359    4.662486e-23     0.097492848     0.040808719   0.00015910544       20.325626
   0.0018991205       5.4039325    0.0075973421    2.988265e-22     0.097489374     0.040800077     0.000159088       20.320939
   0.0019789089       5.4039439    0.0076062278   2.5013662e-22     0.097485864     0.040791349   0.00015907038       20.316206
   0.0020595294       5.4039554    0.0076151938  -6.6354715e-23     0.097482319     0.040782535   0.00015905259       20.311426
   0.0021409906        5.403967    0.0076242405   -1.228473e-22     0.097478738     0.040773634   0.00015903462       20.306598
   0.0022233015       5.4039787    0.0076333685     -2.4952e-23      0.09747512     0.040764645   0.00015901647       20.301723
   0.0023064707       5.4039906    0.0076425784   1.8037883e-24     0.097471466     0.040755567   0.00015899814       20.296799
   0.0023905073       5.4040026    0.0076518707  -2.2451045e-23     0.097467775     0.040746399   0.00015897963       20.291827
   0.0024754204       5.4040148    0.0076612459  -1.4396406e-22     0.097464046     0.040737141   0.00015896093       20.286805
   0.0025612189       5.4040271    0.0076707047  -6.2020786e-23     0.097460279     0.040727791   0.00015894205       20.281734
   0.0026479123       5.4040395    0.0076802476   1.6965222e-22     0.097456474      0.04071835   0.00015892299       20.276612
   0.0027355098       5.4040521    0.0076898751   1.9666024e-22     0.097452631     0.040708815   0.00015890373        20.27144
   0.0028240209       5.4040648    0.0076995879   2.9631282e-23     0.097448749     0.040699186   0.00015888428       20.266217
    0.002913455       5.4040777    0.0077093864  -2.2090253e-22     0.097444827     0.040689462   0.00015886464       20.260943
   0.0030038219       5.4040907    0.0077192712  -1.5453726e-22     0.097440866     0.040679643   0.00015884481       20.255616
   0.0030951311       5.4041039    0.0077292429   1.1889212e-22     0.097436865     0.040669727   0.00015882478       20.250237
   0.0031873927       5.4041172     0.007739302   1.4432259e-22     0.097432823     0.040659714   0.00015880456       20.244805
   0.0032806164       5.4041307     0.007749449   6.4567898e-23     0.097428741     0.040649603   0.00015878413       20.239319
   0.0033748124       5.4041444    0.0077596846  -3.7549415e-23     0.097424617     0.040639392    0.0001587635        20.23378
   0.0034699907       5.4041582    0.0077700092   4.6648324e-24     0.097420451     0.040629081   0.00015874267       20.228186
   0.0035661616       5.4041721    0.0077804233   1.6642568e-22     0.097416243     0.040618669   0.00015872164       20.222537
   0.0036633356       5.4041863    0.0077909276   9.7226433e-23     0.097411993     0.040608155   0.00015870039       20.216832
   0.0037615229       5.4042006    0.0078015225   -2.002482e-22       0.0974077     0.040597538   0.00015867894       20.211072
   0.0038607342        5.404215    0.0078122086  -2.7173812e-22     0.097403364     0.040586817   0.00015865728       20.205255
   0.0039609802       5.4042297    0.0078229864   4.1597698e-23     0.097398984     0.040575992    0.0001586354       20.199381
   0.0040622717       5.4042445    0.0078338565   9.4955637e-23     0.097394559     0.040565061   0.00015861331        20.19345
   0.0041646195       5.4042594    0.0078448192   -9.497425e-23      0.09739009     0.040554023   0.00015859101        20.18746
   0.0042680347       5.4042746    0.0078558753  -5.6114224e-23     0.097385577     0.040542877   0.00015856848       20.181412
   0.0043725284       5.4042899     0.007867025   1.0281614e-22     0.097381017     0.040531622   0.00015854573       20.175305
   0.0044781119       5.4043054    0.0078782691   1.6034158e-22     0.097376412     0.040520258   0.00015852276       20.169138
   0.0045847965       5.4043211    0.0078896079  -3.5309094e-23      0.09737176     0.040508784   0.00015849957       20.162911
   0.0046925938        5.404337     0.007901042  -2.7545363e-22     0.097367062     0.040497198   0.00015847615       20.156623
   0.0048015152        5.404353    0.0079125718  -1.8554397e-22     0.097362316     0.040485499    0.0001584525       20.150274
   0.0049115726       5.4043693    0.0079241978   9.9832148e-23     0.097357522     0.040473686   0.00015842862       20.143863
   0.0050227778       5.4043857    0.0079359205   2.2076043e-22      0.09735268     0.040461759   0.00015840451        20.13739
   0.0051351427       5.4044024    0.0079477403   2.0008786e-22      0.09734779     0.040449716   0.00015838016       20.130854
   0.0052486795       5.4044192    0.0079596578   5.7865561e-23     0.097342851     0.040437557   0.00015835558       20.124254
   0.0053634003       5.4044362    0.0079716734   -1.731638e-22     0.097337862     0.040425279   0.00015833075        20.11759
   0.0054793176       5.4044535    0.0079837875  -2.7578069e-22     0.097332822     0.040412883   0.00015830569       20.110861
   0.0055964437       5.4044709    0.0079960005  -1.0745862e-22     0.097327733     0.040400367   0.00015828038       20.104068
   0.0057147914       5.4044885    0.0080083129   7.0370458e-23     0.097322592      0.04038773   0.00015825482       20.097208
   0.0058343733       5.4045064    0.0080207251  -1.4298382e-23       0.0973174     0.040374971   0.00015822902       20.090282
   0.0059552024       5.4045245    0.0080332375   2.1399757e-23     0.097312155     0.040362089   0.00015820297       20.083289
   0.0060772915       5.4045427    0.0080458506   2.0812066e-22     0.097306858     0.040349083   0.00015817667       20.076228
    0.006200654       5.4045612    0.0080585646   1.5782692e-22     0.097301508     0.040335951   0.00015815011       20.069099
   0.0063253029       5.4045799      0.00807138  -9.1707952e-23     0.097296105     0.040322694   0.00015812329       20.061901
   0.0064512519       5.4045989    0.0080842972  -1.2641456e-22     0.097290647     0.040309308   0.00015809622       20.054634
   0.0065785143        5.404618    0.0080973165   1.6282634e-22     0.097285135     0.040295794   0.00015806888       20.047297
    0.006707104       5.4046374    0.0081104382   2.4567132e-22     0.097279568     0.040282151   0.00015804128       20.039889
   0.0068370347        5.404657    0.0081236627   1.9051479e-22     0.097273945     0.040268376   0.00015801342        20.03241
   0.0069683205       5.4046769    0.0081369904   2.8681952e-22     0.097268266      0.04025447   0.00015798528       20.024859
   0.0071009754        5.404697    0.0081504214    3.207957e-23     0.097262531      0.04024043   0.00015795688       20.017235
   0.0072350138       5.4047173    0.0081639562  -3.9653937e-22     0.097256738     0.040226257    0.0001579282       20.009538
   0.0073704501       5.4047379     0.008177595  -5.2279307e-22     0.097250887     0.040211947   0.00015789925       20.001768
   0.0075072989       5.4047587     0.008191338  -2.5814488e-22     0.097244978     0.040197502   0.00015787002       19.993923
   0.0076455748       5.4047798    0.0082051856   3.1191847e-22      0.09723901     0.040182918   0.00015784051       19.986003
   0.0077852928       5.4048011    0.0082191379   3.2141832e-22     0.097232983     0.040168195   0.00015781072       19.978007
    0.007926468       5.4048227    0.0082331951  -2.0147186e-22     0.097226895     0.040153332   0.00015778064       19.969934
   0.0080691154       5.4048445    0.0082473576  -3.1427855e-22     0.097220747     0.040138328   0.00015775028       19.961785
   0.0082132505       5.4048666    0.0082616254  -9.0693038e-23     0.097214538     0.040123182   0.00015771963       19.953558
   0.0083588888       5.4048889    0.0082759987  -2.5882194e-23     0.097208267     0.040107891   0.00015768868       19.945253
    0.008506046       5.4049116    0.0082904777  -9.8857298e-23     0.097201934     0.040092456   0.00015765744       19.936868
   0.0086547378       5.4049344    0.0083050625  -4.5806686e-23     0.097195538     0.040076874   0.00015762591       19.928404
   0.0088049804       5.4049576    0.0083197533   1.3763293e-22     0.097189079     0.040061145   0.00015759407       19.919859
   0.0089567898       5.4049811      0.00833455   2.0952279e-22     0.097182555     0.040045267   0.00015756193       19.911234
   0.0091101825       5.4050048    0.0083494528   1.3272083e-22     0.097175967     0.040029239   0.00015752949       19.902526
   0.0092651749       5.4050288    0.0083644618   3.8676392e-23     0.097169313      0.04001306   0.00015749674       19.893736
   0.0094217836       5.4050531    0.0083795768  -3.5303291e-23     0.097162594     0.039996728   0.00015746368       19.884863
   0.0095800257       5.4050777    0.0083947981   7.5750033e-23     0.097155808     0.039980243   0.00015743031       19.875906
   0.0097399181       5.4051026    0.0084101254    9.379117e-23     0.097148955     0.039963602   0.00015739662       19.866864
    0.009901478       5.4051278    0.0084255589  -1.4667111e-22     0.097142034     0.039946805   0.00015736262       19.857737
    0.010064723       5.4051533    0.0084410984  -1.2269557e-22     0.097135044     0.039929851    0.0001573283       19.848524
     0.01022967       5.4051791    0.0084567437  -5.0973046e-23     0.097127986     0.039912738   0.00015729365       19.839224
    0.010396337       5.4052052    0.0084724949  -1.0642603e-22     0.097120858     0.039895464   0.00015725868       19.829837
    0.010564743       5.4052316    0.0084883517   1.7658974e-22     0.097113659     0.039878029   0.00015722338       19.820362
    0.010734905       5.4052583     0.008504314    5.396424e-22     0.097106389     0.039860431   0.00015718775       19.810798
    0.010906842       5.4052854    0.0085203816   3.5019846e-22     0.097099048     0.039842668   0.00015715178       19.801144
    0.011080571       5.4053128    0.0085365541  -1.1061583e-22     0.097091635      0.03982474   0.00015711549       19.791399
    0.011256113       5.4053405    0.0085528314  -1.6723123e-22     0.097084148     0.039806645   0.00015707885       19.781564
    0.011433485       5.4053686    0.0085692132  -9.4414343e-23     0.097076588     0.039788382   0.00015704187       19.771636
    0.011612707        5.405397    0.0085856991  -3.3838706e-22     0.097068954      0.03976995   0.00015700454       19.761616
    0.011793798       5.4054257    0.0086022887  -4.2669197e-22     0.097061244     0.039751346   0.00015696687       19.751503
    0.011976778       5.4054548    0.0086189817  -3.4656231e-23     0.097053459      0.03973257   0.00015692885       19.741295
    0.012161666       5.4054842    0.0086357776    2.071609e-22     0.097045597      0.03971362   0.00015689048       19.730993
    0.012348482        5.405514    0.0086526759  -3.7320579e-23     0.097037658     0.039694495   0.00015685175       19.720595
    0.012537247       5.4055442    0.0086696762   -1.023425e-22     0.097029641     0.039675193   0.00015681267         19.7101
     0.01272798       5.4055747    0.0086867779   2.3653978e-22     0.097021546     0.039655714   0.00015677322       19.699508
    0.012920702       5.4056056    0.0087039803   3.3751442e-22     0.097013372     0.039636055   0.00015673341       19.688818
    0.013115435       5.4056368     0.008721283  -5.4491157e-23     0.097005117     0.039616215   0.00015669324        19.67803
    0.013312198       5.4056685    0.0087386852  -3.0204567e-22     0.096996782     0.039596193    0.0001566527       19.667141
    0.013511013       5.4057005    0.0087561861  -8.3025628e-23     0.096988365     0.039575988   0.00015661178       19.656153
    0.013711901       5.4057329    0.0087737852   1.0218173e-22     0.096979866     0.039555597   0.00015657049       19.645063
    0.013914885       5.4057657    0.0087914815   1.2588704e-22     0.096971284      0.03953502   0.00015652882       19.633871
    0.014119985       5.4057989    0.0088092742   4.8713945e-24     0.096962619     0.039514255   0.00015648677       19.622576
