#             y             U_x             U_y             U_z               k             nut           omega
   3.113662e-05      0.13136824   2.3578278e-07               0   1.9672716e-05   2.7085129e-11       4021231.5
  5.3394177e-05      0.22439521   6.3092589e-07               0   9.4292976e-05   2.7073535e-10       863133.94
  7.7022295e-05      0.32312869   1.2807511e-06               0   0.00030987106    1.609508e-09       332152.95
  0.00010210537      0.42789968   2.2281732e-06               0   0.00080012347   6.8501466e-09       167402.69
  0.00012873299      0.53901995   3.5217931e-06               0    0.0017565538   2.3103531e-08       97977.363
  0.00015700027      0.65672531   5.2179446e-06               0     0.003435927   6.5592968e-08        63116.89
  0.00018700818      0.78106944   7.3788187e-06               0    0.0061585292   1.6266531e-07       43560.373
  0.00021886389      0.91175929   1.0069869e-05               0     0.010282918   3.6050563e-07       31728.647
  0.00025268119       1.0479592   1.3355261e-05               0     0.016141312   7.2439337e-07       24160.915
  0.00028858087       1.1881527   1.7291205e-05               0     0.023934265   1.3329457e-06       19094.739
  0.00032669115       1.3301896   2.1919523e-05               0     0.033619801   2.2648219e-06       15557.655
  0.00036714817       1.4715845   2.7265445e-05               0     0.044864961   3.5830706e-06       12983.758
  0.00041009642       1.6099723    3.334204e-05               0     0.057108273   5.3253506e-06        11034.39
  0.00045568931       1.7435055   4.0158708e-05               0     0.069707674   7.5044026e-06       9504.6578
  0.00050408968       1.8710332   4.7725605e-05               0     0.082091444   1.0115918e-05       8269.5622
  0.00055547043       1.9921286   5.6062471e-05               0     0.093847752   1.3109504e-05       7250.7658
  0.00061001506       2.1069795    6.521053e-05               0      0.10474655   1.6425437e-05       6396.1658
   0.0006679184       2.2160138   7.5223929e-05               0      0.11469704   2.0098322e-05       5669.3161
  0.00072938728       2.3195717   8.6156115e-05               0      0.12367584   2.4205555e-05       5044.5525
  0.00079464125       2.4179189   9.8061262e-05               0      0.13169485    2.878848e-05        4503.549
  0.00086391338       2.5113475   0.00011100019               0      0.13879788   3.3869712e-05        4032.625
   0.0009374511       2.6001861   0.00012504251               0      0.14505088   3.9467474e-05       3621.1125
   0.0010155171       2.6847817   0.00014026667               0      0.15053104   4.5599167e-05       3260.4133
   0.0010983902       2.7654822   0.00015676074               0      0.15531869   5.2282096e-05       2943.4392
   0.0011863663       2.8426255   0.00017462338               0      0.15949227    5.953166e-05       2664.2597
   0.0012797599        2.916536   0.00019396274               0       0.1631255    6.735501e-05        2417.857
   0.0013789043       2.9875323   0.00021488979               0      0.16628589   7.5732639e-05        2199.925
   0.0014841538        3.055948   0.00023752127               0      0.16903335   8.4580608e-05       2006.6691
   0.0015958843       3.1221265   0.00026199028               0      0.17141916   9.3851348e-05       1834.7015
   0.0017144948       3.1863599   0.00028844028               0      0.17348442   0.00010363124       1681.1135
    0.001840409       3.2488611   0.00031702436               0      0.17525995   0.00011399704        1543.508
   0.0019740768       3.3098014   0.00034791575               0      0.17677015   0.00012496212       1419.8844
   0.0021159754       3.3693362   0.00038130644               0      0.17803579   0.00013653849       1308.5368
   0.0022666117       3.4276064   0.00041740469               0      0.17907447    0.0001487364       1208.0052
   0.0024265239       3.4847409   0.00045643794               0      0.17990087   0.00016156378       1117.0347
    0.002596283       3.5408578   0.00049865538               0      0.18052717   0.00017502573        1034.543
   0.0027764954       3.5960659   0.00054433028               0      0.18096321   0.00018912377       959.59304
   0.0029678048        3.650466   0.00059376264               0       0.1812168    0.0002038552       891.37121
   0.0031708945       3.7041523   0.00064728222               0      0.18129389    0.0002192122       829.16842
     0.00338649       3.7572128   0.00070525194               0      0.18119871   0.00023518092        772.3649
   0.0036153613       3.8097307   0.00076807175               0      0.18093393   0.00025174039       720.41736
   0.0038583258       3.8617852   0.00083618303               0      0.18050075   0.00026886138       672.84817
   0.0041162514       3.9134521    0.0009100735               0      0.17989903   0.00028650517       629.23636
   0.0043900594       3.9648042   0.00099028296               0      0.17912733   0.00030462206          589.21
   0.0046807278       4.0159127    0.0010774099               0      0.17818297   0.00032314978       552.43974
   0.0049892948        4.066847    0.0011721192               0      0.17706206   0.00034201187       518.63336
   0.0053168625       4.1176756    0.0012751469               0      0.17575957   0.00036111583       487.53115
   0.0056646009       4.1684666    0.0013873005               0      0.17426937   0.00038035121         458.902
   0.0060337521       4.2192896    0.0015095153               0      0.17258409      0.00039956       432.53917
   0.0064256347        4.270239    0.0016430115               0      0.17069306   0.00041818415       408.24486
   0.0068416484       4.3214567    0.0017893561               0      0.16857965   0.00043556927       385.81268
    0.007283279       4.3730989    0.0019503652               0      0.16622118   0.00045163422       365.03602
   0.0077521041       4.4252887    0.0021278833               0      0.16359017   0.00046652904       345.72619
   0.0082497982       4.4781121    0.0023237112               0       0.1606557   0.00048025884       327.71418
    0.008778139       4.5316337    0.0025397294               0       0.1573842   0.00049270207       310.84414
   0.0093390136       4.5859077    0.0027779554               0      0.15373953   0.00050362975       294.96754
   0.0099344254       4.6409848    0.0030405863               0      0.14968235   0.00051272093       279.93741
    0.010566501       4.6969171     0.003330041               0      0.14516893   0.00051957504       265.60202
    0.011237498       4.7537597    0.0036490029               0      0.14014947   0.00052372949       251.79774
    0.011949813       4.8115692    0.0040004421               0       0.1345662   0.00052470465       238.34105
    0.012705991       4.8703922    0.0043875623               0       0.1283523   0.00052211376       225.02146
    0.013508733       4.9302334    0.0048135342               0      0.12143446   0.00051590134       211.60036
    0.014360904       4.9909791    0.0052806898               0      0.11375017   0.00050680813       197.85902
    0.015265551       5.0522447    0.0057885893               0      0.10532352   0.00049711729       183.87598
    0.016225903        5.113167    0.0063309561               0     0.096363785   0.00049096001        170.1288
    0.017245391       5.1723313    0.0068933381               0      0.08723119   0.00049281191         156.941
    0.018327656       5.2281085    0.0074544363               0     0.078301886   0.00050390647       144.21214
    0.019476565       5.2794713    0.0079979582               0     0.069846419   0.00051604342       131.71789
     0.02069622       5.3264622    0.0085203599               0     0.061970592   0.00051809344       119.15954
    0.021990978       5.3693003    0.0090197533               0     0.054746896   0.00051552853       106.21314
    0.023365464       5.4074226    0.0094823136               0     0.048360803   0.00052174026        92.85917
    0.024824587       5.4399315    0.0098846426               0     0.043034999   0.00054351254       79.530591
    0.026373559       5.4663726     0.010207775               0     0.038886037   0.00058534979       66.931534
    0.028017912       5.4869533     0.010444466               0     0.035865282   0.00065078399       55.681321
     0.02976352       5.5023956     0.010597218               0     0.033787551   0.00074590363       45.916219
    0.031616619       5.5136602     0.010675138               0      0.03242354   0.00087695225       37.559521
    0.033583826       5.5217736     0.010691829               0     0.031576121    0.0010326238       30.971214
    0.035672168       5.5276815     0.010661405               0     0.031082413    0.0011871544       26.389378
    0.037889106       5.5320895     0.010594546               0     0.030810219    0.0013254793       23.354441
    0.040242556       5.5354403     0.010497921               0     0.030671983      0.00144496       21.286787
    0.042740925       5.5379998     0.010375285               0     0.030615987     0.001545528       19.842462
    0.045393137       5.5399352     0.010228579               0     0.030610097    0.0016280437       18.819974
    0.048208665        5.541357     0.010058782               0     0.030633275    0.0016940007       18.093283
    0.051197566       5.5423426    0.0098662666               0     0.030671264    0.0017452916       17.578962
    0.054370516       5.5429496    0.0096510329               0     0.030714138    0.0017839808       17.219305
    0.057738847       5.5432244    0.0094128791               0     0.030755213    0.0018121842       16.972652
    0.061314592       5.5432074    0.0091513792               0     0.030790417     0.001831992       16.807668
     0.06511052        5.542936    0.0088660538               0     0.030817757      0.00184535       16.700481
    0.069140193       5.5424468    0.0085564446               0     0.030836918    0.0018539981       16.632762
    0.073418001        5.541777    0.0082220074               0     0.030848849    0.0018594292       16.590532
    0.077959226        5.540964    0.0078621867               0     0.030855324    0.0018628725       16.563317
    0.082780087       5.5400447    0.0074763891               0     0.030858493    0.0018653036       16.543421
    0.087897803       5.5390545    0.0070639321               0      0.03086049    0.0018674764       16.525245
    0.093330656       5.5380264    0.0066240133               0     0.030863131    0.0018699573       16.504742
