#             y             U_x             U_y             U_z               k             nut           omega
   3.113662e-05      0.16231924   1.5257234e-06               0   3.2745772e-05   4.5081115e-11       4021257.7
  5.3394177e-05      0.27726057    4.081289e-06               0   0.00015693608   4.5042245e-10          863205
  7.7022295e-05      0.39924576     8.28295e-06               0   0.00051559439   2.6746095e-09       332297.49
  0.00010210537      0.52866745   1.4407345e-05               0    0.0013304249   1.1353285e-08       167650.58
  0.00012873299      0.66586205   2.2766931e-05               0    0.0029161773    3.809254e-08       98354.034
  0.00015700027      0.81099838   3.3720963e-05               0    0.0056856052    1.071615e-07       63638.218
  0.00018700818      0.96388344    4.765942e-05               0      0.01012846    2.619101e-07       44227.884
  0.00021886389       1.1236991   6.4979571e-05               0     0.016736939   5.6839708e-07       32526.464
  0.00025268119       1.2887694   8.6050788e-05               0     0.025862376   1.1110913e-06       25056.629
  0.00028858087       1.4565432   0.00011117674               0     0.037539721   1.9780798e-06       20045.508
  0.00032669115       1.6239308   0.00014057906               0     0.051381995    3.240802e-06       16520.074
  0.00036714817       1.7879128   0.00017441992               0      0.06664131   4.9393625e-06        13923.27
  0.00041009642       1.9461171   0.00021284815               0     0.082420603   7.0809892e-06       11930.182
  0.00045568931       2.0971317   0.00025606968               0     0.097910232   9.6367245e-06       10348.882
  0.00050408968       2.2405745   0.00030442095               0      0.11253687   1.2521926e-05         9062.16
  0.00055547043       2.3768238   0.00035838957               0       0.1259931   1.5680511e-05        7993.887
  0.00061001506       2.5064254   0.00041852582               0      0.13815616   1.9163549e-05       7092.5106
   0.0006679184        2.629773   0.00048536108               0      0.14898627   2.3025245e-05       6322.8811
  0.00072938728       2.7472265   0.00055947815               0      0.15849605   2.7269875e-05       5660.3553
  0.00079464125        2.859213   0.00064156805               0      0.16674463    3.188813e-05       5086.7187
  0.00086391338       2.9662073    0.0007324191               0      0.17381814    3.686283e-05       4587.8778
   0.0009374511       3.0687029   0.00083292574               0      0.17981359   4.2171545e-05       4152.5334
   0.0010155171       3.1671898   0.00094409978               0      0.18482772   4.7787115e-05       3771.4053
   0.0010983902       3.2621401    0.0010670822               0      0.18895019    5.367635e-05       3436.7531
   0.0011863663       3.3540015    0.0012031564               0         0.19226   5.9799804e-05       3142.0545
   0.0012797599       3.4431946    0.0013537632               0      0.19482387   6.6112097e-05       2881.7792
   0.0013789043       3.5301112    0.0015205167               0      0.19669569   7.2562092e-05       2651.2291
   0.0014841538       3.6151151    0.0017052225               0      0.19791679    7.909311e-05         2446.41
   0.0015958843       3.6985427    0.0019098961               0       0.1985166   8.5643252e-05       2263.8847
   0.0017144948        3.780705    0.0021367815               0      0.19851352   9.2145933e-05        2100.654
    0.001840409       3.8618883    0.0023883697               0      0.19791503   9.8529844e-05       1954.1131
   0.0019740768       3.9423559    0.0026674154               0      0.19671808    0.0001047192       1822.0097
   0.0021159754       4.0223484    0.0029769505               0      0.19491044   0.00011063487       1702.3703
   0.0022666117       4.1020837    0.0033202909               0      0.19247095   0.00011619465       1593.4395
   0.0024265239       4.1817561    0.0037010357               0      0.18936955   0.00012131318       1493.6354
    0.002596283       4.2615349    0.0041230557               0      0.18556794   0.00012590213       1401.5086
   0.0027764954       4.3415614    0.0045904646               0      0.18102007    0.0001298701       1315.7056
   0.0029678048        4.421945    0.0051075609               0      0.17567279   0.00013312318       1234.9336
   0.0031708945       4.5027565    0.0056787182               0      0.16946683   0.00013556789       1157.9253
     0.00338649        4.584016    0.0063081712               0      0.16233866   0.00013712105       1083.4056
   0.0036153613       4.6656692    0.0069996207               0       0.1542246   0.00013773894       1010.0615
   0.0038583258        4.747534    0.0077555382               0      0.14507128   0.00013749229       936.53888
   0.0041162514       4.8291835    0.0085755457               0      0.13489599   0.00013674068       862.37248
   0.0043900594       4.9097445     0.009452922               0      0.12391329   0.00013633959       789.34414
   0.0046807278       4.9877439     0.010370112               0      0.11254747   0.00013752214       719.52112
   0.0049892948       5.0612877      0.01129747               0      0.10128093   0.00014129233       652.60545
   0.0053168625       5.1287117      0.01220475               0      0.09054122    0.0001473448       587.26621
   0.0056646009         5.18939     0.013076102               0     0.080614622   0.00015283816       522.50469
   0.0060337521       5.2435173     0.013906204               0       0.0716644   0.00015695223       457.49049
   0.0064256347        5.290936     0.014681181               0     0.063886263   0.00016351407       392.44689
   0.0068416484       5.3309934     0.015372623               0     0.057499441   0.00017598324       329.36673
    0.007283279       5.3633962     0.015956995               0     0.052594093    0.0001963823       271.08611
   0.0077521041       5.3885802     0.016427494               0      0.04906661    0.0002270484       219.66896
   0.0082497982       5.4074923     0.016788451               0     0.046671137   0.00027247645       175.12048
    0.008778139       5.4212976     0.017051993               0     0.045126971   0.00033831996       137.03479
   0.0093390136        5.431237     0.017236731               0     0.044190888   0.00042359956       106.91547
   0.0099344254       5.4384771      0.01736346               0     0.043657869   0.00052060024       85.430964
    0.010566501       5.4439085     0.017449174               0     0.043366853   0.00062394185       70.487047
    0.011237498       5.4481046     0.017504849               0     0.043215183   0.00073176975       59.697327
    0.011949813       5.4514207     0.017537134               0     0.043144036   0.00084262581       51.635145
    0.012705991       5.4540861     0.017550314               0     0.043118346   0.00095505092       45.447715
    0.013508733       5.4562539     0.017547217               0     0.043116328    0.0010675586        40.59933
    0.014360904       5.4580305     0.017529717               0     0.043124016    0.0011786239       36.739347
    0.015265551        5.459491      0.01749905               0     0.043132235    0.0012866923       33.630046
    0.016225903         5.46069     0.017455996               0     0.043134828    0.0013902083       31.105245
    0.017245391       5.4616675     0.017401019               0     0.043127664    0.0014876633       29.045569
    0.018327656       5.4624533     0.017334329               0     0.043108031    0.0015776561       27.363102
    0.019476565       5.4630693     0.017255942               0     0.043074325    0.0016589673       25.991512
     0.02069622       5.4635318     0.017165714               0     0.043025881    0.0017306361       24.879482
    0.021990978       5.4638529     0.017063361               0     0.042962834    0.0017920318       23.986197
    0.023365464       5.4640414     0.016948499               0     0.042886109    0.0018429149       23.278163
    0.024824587       5.4641039     0.016820635               0     0.042797428    0.0018834729       22.726941
    0.026373559       5.4640453     0.016679177               0     0.042699297    0.0019143219       22.307549
    0.028017912       5.4638697     0.016523511               0     0.042594955    0.0019364623       21.997454
     0.02976352       5.4635812      0.01635298               0     0.042488228    0.0019511968        21.77599
    0.031616619       5.4631842     0.016166912               0     0.042383273    0.0019600155       21.624139
    0.033583826       5.4626842     0.015964666               0     0.042284218    0.0019644473        21.52479
    0.035672168       5.4620875     0.015745632               0     0.042194713    0.0019659155       21.463138
    0.037889105       5.4614015     0.015509235               0     0.042117497     0.001965627       21.426994
    0.040242556       5.4606342     0.015254916               0     0.042054071    0.0019645022       21.406977
    0.042740925       5.4597938     0.014982102               0     0.042004567    0.0019631589        21.39641
    0.045393137       5.4588885     0.014690157               0     0.041967876    0.0019619456       21.390943
    0.048208665       5.4579258     0.014378345               0      0.04194199    0.0019610058       21.387995
    0.051197566       5.4569127     0.014045793               0     0.041924465    0.0019603526       21.386183
    0.054370516       5.4558559     0.013691475               0      0.04191288    0.0019599345       21.384834
    0.057738847        5.454762     0.013314221               0      0.04190517     0.001959683       21.383645
    0.061314592       5.4536379     0.012912728               0     0.041899795    0.0019595393        21.38247
     0.06511052       5.4524909     0.012485583               0     0.041895748     0.001959466       21.381205
    0.069140193        5.451329     0.012031273               0     0.041892454      0.00195945       21.379698
    0.073418001       5.4501606     0.011548191               0     0.041889649    0.0019595042       21.377675
    0.077959226       5.4489947     0.011034628               0     0.041887261     0.001959672       21.374628
    0.082780087       5.4478405     0.010488765               0     0.041885333    0.0019600305       21.369734
    0.087897803       5.4467074    0.0099086624               0     0.041883954    0.0019606824       21.361929
    0.093330656       5.4456048     0.009292243               0     0.041883212    0.0019617208       21.350246
