#      distance             U_x             U_y             U_z wallShearStr... wallShearStr... wallShearStr...               p           omega               k             nut
              0       0.9998073               0               0               0               0               0     0.004572081       370.60868    6.394687e-05   1.7254553e-07
   0.0021021021      0.99980144               0               0               0               0               0    0.0045903663        370.6175     6.39475e-05   1.7254313e-07
   0.0042042042      0.99979559               0               0               0               0               0    0.0046086515       370.62631   6.3948131e-05   1.7254072e-07
   0.0063063063      0.99978973               0               0               0               0               0    0.0046269368       370.63512   6.3948761e-05   1.7253832e-07
   0.0084084084      0.99978388               0               0               0               0               0    0.0046452221       370.64394   6.3949391e-05   1.7253592e-07
    0.010510511      0.99977702               0               0               0               0               0    0.0046659437       370.65351    6.395043e-05   1.7253426e-07
    0.012612613      0.99976954               0               0               0               0               0    0.0046881784       370.66356   6.3951722e-05   1.7253307e-07
    0.014714715      0.99976206               0               0               0               0               0    0.0047104131       370.67361   6.3953015e-05   1.7253188e-07
    0.016816817      0.99975458               0               0               0               0               0    0.0047326478       370.68366   6.3954307e-05   1.7253069e-07
    0.018918919       0.9997471               0               0               0               0               0    0.0047548825        370.6937     6.39556e-05    1.725295e-07
    0.021021021      0.99973934               0               0               0               0               0    0.0047777364       370.70397   6.3956987e-05   1.7252847e-07
    0.023123123      0.99972975               0               0               0               0               0    0.0048047527       370.71568   6.3959014e-05   1.7252848e-07
    0.025225225      0.99972015               0               0               0               0               0    0.0048317691       370.72739   6.3961041e-05    1.725285e-07
    0.027327327      0.99971056               0               0               0               0               0    0.0048587854        370.7391   6.3963068e-05   1.7252852e-07
    0.029429429      0.99970096               0               0               0               0               0    0.0048858018       370.75081   6.3965095e-05   1.7252854e-07
    0.031531532      0.99969066               0               0               0               0               0    0.0049143105       370.76306   6.3967338e-05   1.7252888e-07
    0.033633634      0.99967829               0               0               0               0               0    0.0049471782       370.77692    6.397021e-05   1.7253018e-07
    0.035735736      0.99966592               0               0               0               0               0     0.004980046       370.79077   6.3973081e-05   1.7253148e-07
    0.037837838      0.99965355               0               0               0               0               0    0.0050129137       370.80462   6.3975953e-05   1.7253278e-07
     0.03993994      0.99964118               0               0               0               0               0    0.0050457814       370.81847   6.3978825e-05   1.7253408e-07
    0.042042042      0.99962544               0               0               0               0               0    0.0050852841       370.83477   6.3982605e-05   1.7253669e-07
    0.044144144      0.99960938               0               0               0               0               0    0.0051254087        370.8513   6.3986471e-05   1.7253943e-07
    0.046246246      0.99959332               0               0               0               0               0    0.0051655333       370.86782   6.3990336e-05   1.7254216e-07
    0.048348348      0.99957708               0               0               0               0               0    0.0052059939       370.88447   6.3994244e-05   1.7254496e-07
     0.05045045      0.99955605               0               0               0               0               0     0.005255276       370.90427   6.3999293e-05   1.7254936e-07
    0.052552553      0.99953501               0               0               0               0               0    0.0053045581       370.92407   6.4004341e-05   1.7255376e-07
    0.054654655      0.99951397               0               0               0               0               0    0.0053538403       370.94386    6.400939e-05   1.7255816e-07
    0.056756757      0.99948907               0               0               0               0               0    0.0054097231       370.96587   6.4015236e-05   1.7256368e-07
    0.058858859      0.99946111               0               0               0               0               0    0.0054708098       370.98963   6.4021713e-05   1.7257008e-07
    0.060960961      0.99943316               0               0               0               0               0    0.0055318965       371.01338    6.402819e-05   1.7257649e-07
    0.063063063      0.99940108               0               0               0               0               0    0.0055996621       371.03919   6.4035416e-05   1.7258396e-07
    0.065165165      0.99936342               0               0               0               0               0    0.0056764576       371.06777   6.4043655e-05   1.7259288e-07
    0.067267267      0.99932576               0               0               0               0               0     0.005753253       371.09635   6.4051895e-05   1.7260179e-07
    0.069369369      0.99927928               0               0               0               0               0    0.0058426612       371.12821   6.4061411e-05   1.7261261e-07
    0.071471471      0.99922652               0               0               0               0               0    0.0059410621       371.16242   6.4071836e-05   1.7262479e-07
    0.073573574      0.99917376               0               0               0               0               0     0.006039463       371.19663   6.4082261e-05   1.7263697e-07
    0.075675676      0.99909985               0               0               0               0               0     0.006169562        371.2412   6.4096054e-05   1.7265339e-07
    0.077777778      0.99902571               0               0               0               0               0    0.0063000209       371.28588   6.4109885e-05   1.7266987e-07
     0.07987988       0.9989236               0               0               0               0               0     0.006459634       371.32428   6.4124484e-05   1.7269133e-07
    0.081981982      0.99880269               0               0               0               0               0     0.006638848       371.35846   6.4139601e-05   1.7271614e-07
    0.084084084      0.99866114               0               0               0               0               0    0.0068534972       371.45459   6.4165494e-05   1.7274114e-07
    0.086186186      0.99848485               0               0               0               0               0    0.0071278366       371.65508   6.4209542e-05   1.7276646e-07
    0.088288288      0.99820289               0  -3.0391187e-22               0               0               0    0.0074420217       371.62804   6.4221139e-05   1.7281042e-07
     0.09039039      0.99764401               0  -1.4042412e-21               0               0               0    0.0078606245       371.00477   6.4147696e-05   1.7290323e-07
    0.092492492      0.99715088               0    1.196753e-17               0               0               0    0.0084748419       375.38341   6.4465311e-05   1.7191702e-07
    0.094594595      0.99683108               0    5.549976e-17               0               0               0    0.0096048677       392.95144   6.5814092e-05   1.6808563e-07
    0.096696697      0.90881045               0    8.439426e-17  -0.00046373383  -3.0896266e-06               0     0.010386078       1403954.9   6.1081047e-05   1.5028359e-07
    0.098798799      0.64767752               0   8.4395409e-17   -0.0018428299  -1.2277854e-05               0     0.010478764       5577966.9   4.4343112e-05   1.0490495e-07
      0.1009009      0.38652589               0   6.5444265e-17   -0.0029214471  -1.7592459e-05   8.0586017e-20     0.009638284       9751198.2   2.6971735e-05       6.124e-08
       0.103003       0.1253493               0   2.1223399e-17    -0.003599426  -1.7742233e-05   2.6862006e-19    0.0075535817        13923389   8.7557694e-06   1.9859967e-08
     0.10510511               0               0               0   -0.0035526626  -1.3077382e-05   5.0102483e-19    0.0058908791        15925793   1.6264066e-08               0
     0.10720721               0               0               0   -0.0028370649  -3.9693135e-06   7.7437748e-19    0.0046176226        15925793   2.2186632e-08               0
     0.10930931               0               0               0   -0.0025349652  -2.0391764e-07   7.1980274e-19    0.0041710332        15925793   2.7237451e-08               0
     0.11141141               0               0               0   -0.0025130169  -5.8267409e-08   4.4305197e-19    0.0042845238        15925793   3.1697646e-08               0
     0.11351351               0               0               0   -0.0024956774  -8.7738835e-09   1.7152757e-19    0.0044029951        15925793   3.3641485e-08               0
     0.11561562               0               0               0   -0.0024807531  -9.6713787e-09  -9.7257959e-20    0.0045240764        15925793   3.4266625e-08               0
     0.11771772               0               0               0   -0.0024554009  -1.1262512e-08  -1.1493638e-19    0.0045341302        15925793     3.39207e-08               0
     0.11981982               0               0               0   -0.0024255692  -1.3151605e-08  -2.4748798e-20    0.0044964907        15925793   3.3157643e-08               0
     0.12192192               0               0               0   -0.0023946153  -1.3513631e-08               0    0.0044207784        15925793   3.2262314e-08               0
     0.12402402               0               0               0   -0.0023632369  -1.3298124e-08               0    0.0043306671        15925793    3.131696e-08               0
     0.12612613               0               0               0   -0.0023344705  -1.2619772e-08               0    0.0042589425        15925793   3.0464908e-08               0
     0.12822823               0               0               0   -0.0023066521  -1.1773426e-08               0    0.0041938916        15925793   2.9646722e-08               0
     0.13033033               0               0               0   -0.0022817569  -1.0955814e-08               0    0.0041472122        15925793   2.8921397e-08               0
     0.13243243               0               0               0   -0.0022579807  -1.0149201e-08               0    0.0041075655        15925793   2.8231619e-08               0
     0.13453453               0               0               0   -0.0022364567  -9.4626643e-09  -1.4495986e-19       0.0040713        15925793   2.7609861e-08               0
     0.13663664               0               0               0   -0.0022159291  -8.8292464e-09  -3.5404727e-19    0.0040365303        15925793   2.7018194e-08               0
     0.13873874               0               0               0   -0.0021970318  -8.2864908e-09  -4.2861529e-19    0.0040019954        15925793   2.6477656e-08               0
     0.14084084               0               0               0   -0.0021790383  -7.7939919e-09  -4.2861533e-19    0.0039675908        15925793   2.5965462e-08               0
     0.14294294               0               0               0   -0.0021621879   -7.367326e-09  -4.0596506e-19    0.0039345178        15925793   2.5489608e-08               0
     0.14504505               0               0               0   -0.0021461906  -6.9897948e-09   -3.664096e-19    0.0039024388        15925793   2.5040877e-08               0
     0.14714715               0               0               0   -0.0021309156  -6.6565541e-09  -2.7366191e-19    0.0038715651        15925793   2.4614267e-08               0
     0.14924925               0               0               0   -0.0021164219  -6.3712375e-09  -1.2335785e-19    0.0038419956        15925793   2.4211592e-08               0
     0.15135135               0               0               0   -0.0021023592   -6.104656e-09  -1.8922763e-20    0.0038131158        15925793   2.3822129e-08               0
     0.15345345               0               0               0   -0.0020890442  -5.8705846e-09   5.9178893e-21    0.0037854325        15925793   2.3455593e-08               0
     0.15555556               0               0               0   -0.0020759698  -5.6422038e-09  -8.3733708e-21    0.0037581375        15925793   2.3096794e-08               0
     0.15765766               0               0               0   -0.0020637109  -5.4331246e-09  -1.5539262e-19    0.0037321591        15925793   2.2764242e-08               0
     0.15975976               0               0               0   -0.0020515155  -5.2254807e-09   -2.764519e-19    0.0037062978        15925793   2.2433723e-08               0
     0.16186186               0               0               0   -0.0020402209  -5.0382328e-09  -2.8620654e-20    0.0036821008        15925793    2.213209e-08               0
     0.16396396               0               0               0   -0.0020289263  -4.8509849e-09   2.1921059e-19    0.0036579037        15925793   2.1830456e-08               0
     0.16606607               0               0               0   -0.0020183926  -4.6838022e-09   2.4923169e-19    0.0036352203        15925793   2.1552739e-08               0
     0.16816817               0               0               0   -0.0020079638   -4.519385e-09   2.4923172e-19    0.0036127455        15925793   2.1278317e-08               0
     0.17027027               0               0               0   -0.0019980409   -4.369775e-09   1.4308466e-19    0.0035911802        15925793   2.1019517e-08               0
     0.17237237               0               0               0   -0.0019883715  -4.2275862e-09  -1.6261806e-20    0.0035700707        15925793   2.0768546e-08               0
     0.17447447               0               0               0   -0.0019789867  -4.0928468e-09  -1.0762673e-19    0.0035494829        15925793   2.0526242e-08               0
     0.17657658               0               0               0   -0.0019699843   -3.968119e-09  -1.0762674e-19    0.0035295962        15925793   2.0295586e-08               0
     0.17867868               0               0               0    -0.001961078  -3.8455406e-09  -1.1319743e-19     0.003509875        15925793   2.0067833e-08               0
     0.18078078               0               0               0   -0.0019526789   -3.734301e-09  -1.4815693e-19    0.0034910269        15925793   1.9855392e-08               0
     0.18288288               0               0               0   -0.0019442798  -3.6230615e-09  -1.8311644e-19    0.0034721787        15925793   1.9642951e-08               0
     0.18498498               0               0               0   -0.0019363497    -3.52268e-09  -1.2247161e-19    0.0034541896        15925793   1.9444478e-08               0
     0.18708709               0               0               0    -0.001928494  -3.4240182e-09  -4.6685864e-20    0.0034363365        15925793   1.9248216e-08               0
     0.18918919               0               0               0   -0.0019208998  -3.3314545e-09   3.1216128e-20    0.0034189232        15925793   1.9059648e-08               0
     0.19129129               0               0               0    -0.001913531  -3.2441406e-09   1.1093997e-19    0.0034018884        15925793   1.8877704e-08               0
     0.19339339               0               0               0   -0.0019062413  -3.1585433e-09   1.6294893e-19    0.0033849998        15925793    1.869807e-08               0
      0.1954955               0               0               0    -0.001899311  -3.0807373e-09    8.916195e-20    0.0033687744        15925793   1.8528924e-08               0
      0.1975976               0               0               0   -0.0018923807  -3.0029312e-09   1.5374966e-20     0.003352549        15925793   1.8359778e-08               0
      0.1996997               0               0               0    -0.001885766  -2.9312391e-09               0    0.0033370226        15925793     1.81997e-08               0
      0.2018018               0               0               0   -0.0018792343  -2.8611563e-09               0    0.0033216802        15925793   1.8042009e-08               0
      0.2039039               0               0               0    -0.001872838  -2.7936453e-09  -2.0980865e-20    0.0033064962        15925793   1.7888171e-08               0
     0.20600601               0               0               0   -0.0018666726  -2.7305234e-09  -7.7768004e-20    0.0032915825        15925793   1.7740909e-08               0
     0.20810811               0               0               0   -0.0018605072  -2.6674015e-09  -1.3455514e-19    0.0032766689        15925793   1.7593648e-08               0
     0.21021021               0               0               0   -0.0018546461  -2.6096939e-09  -1.3950624e-19     0.003262331        15925793   1.7455004e-08               0
     0.21231231               0               0               0    -0.001848814  -2.5525034e-09  -1.3950627e-19    0.0032480481        15925793   1.7317184e-08               0
     0.21441441               0               0               0   -0.0018431122  -2.4973382e-09  -1.1632102e-19    0.0032340951        15925793   1.7182999e-08               0
     0.21651652               0               0               0   -0.0018375901  -2.4449652e-09  -6.1169771e-20    0.0032205968        15925793   1.7053824e-08               0
     0.21861862               0               0               0   -0.0018320681  -2.3925923e-09  -6.0185192e-21    0.0032070985        15925793   1.6924649e-08               0
     0.22072072               0               0               0   -0.0018268019  -2.3448359e-09               0    0.0031938426        15925793    1.680253e-08               0
     0.22282282               0               0               0    -0.001821567   -2.297645e-09               0    0.0031806164        15925793   1.6681276e-08               0
     0.22492492               0               0               0   -0.0018164162  -2.2518865e-09               0    0.0031675622        15925793   1.6562328e-08               0
     0.22702703               0               0               0   -0.0018114416  -2.2091324e-09               0    0.0031548689        15925793   1.6448219e-08               0
     0.22912913               0               0               0    -0.001806467  -2.1663783e-09               0    0.0031421756        15925793    1.633411e-08               0
     0.23123123               0               0               0   -0.0018016671  -2.1259361e-09  -2.9036761e-20    0.0031299856        15925793   1.6224715e-08               0
     0.23333333               0               0               0   -0.0017969368  -2.0864159e-09  -6.9653257e-20    0.0031179964        15925793     1.61172e-08               0
